Normalized Coil Height [-],Air Velocity [m/s]
0.0,1e-05
0.002512562814070352,1e-05
0.005025125628140704,1e-05
0.007537688442211055,1e-05
0.010050251256281407,1e-05
0.01256281407035176,1e-05
0.01507537688442211,1e-05
0.017587939698492466,1e-05
0.020100502512562814,1e-05
0.022613065326633167,1e-05
0.02512562814070352,1e-05
0.02763819095477387,1e-05
0.03015075376884422,1e-05
0.032663316582914576,1e-05
0.03517587939698493,1e-05
0.03768844221105527,1e-05
0.04020100502512563,1e-05
0.042713567839195984,1e-05
0.04522613065326633,0.0787628
0.04773869346733668,0.15917797
0.05025125628140704,0.24261634
0.052763819095477386,0.34091395
0.05527638190954774,0.5005802
0.05778894472361809,0.6694099
0.06030150753768844,0.8811313
0.06281407035175879,1.1663102
0.06532663316582915,1.3839422
0.0678391959798995,1.5081072
0.07035175879396986,1.63888
0.0728643216080402,1.7238114
0.07537688442211055,1.7565439
0.07788944723618091,1.7376595
0.08040201005025126,1.6873069
0.0829145728643216,1.622617
0.08542713567839197,1.5552921
0.0879396984924623,1.4879673
0.09045226130653267,1.4249653
0.09296482412060302,1.3770394
0.09547738693467336,1.3351121
0.09798994974874373,1.2935265
0.10050251256281408,1.2550282
0.10301507537688441,1.2165298
0.10552763819095477,1.1836855
0.10804020100502512,1.1508527
0.11055276381909548,1.1180198
0.11306532663316583,1.090891
0.11557788944723618,1.0736936
0.11809045226130653,1.0568628
0.12060301507537688,1.0402206
0.12311557788944723,1.0235504
0.12562814070351758,1.007866
0.12814070351758794,0.99624026
0.1306532663316583,0.988852
0.13316582914572864,0.9814637
0.135678391959799,0.9740753
0.13819095477386936,0.9666871
0.14070351758793972,0.95929885
0.14321608040201003,0.9519105
0.1457286432160804,0.94452226
0.14824120603015076,0.9371339
0.1507537688442211,0.9297458
0.15326633165829145,0.92235744
0.15577889447236182,0.9149692
0.15829145728643215,0.91022956
0.16080402010050251,0.9070716
0.16331658291457288,0.9039136
0.1658291457286432,0.9007555
0.16834170854271358,0.89759755
0.17085427135678394,0.89454806
0.17336683417085427,0.8915386
0.1758793969849246,0.8885293
0.17839195979899497,0.88552
0.18090452261306533,0.8821318
0.18341708542713567,0.8781513
0.18592964824120603,0.8741708
0.1884422110552764,0.8701904
0.19095477386934673,0.86757517
0.1934673366834171,0.8652102
0.19597989949748745,0.86284506
0.1984924623115578,0.8608587
0.20100502512562815,0.85892236
0.2035175879396985,0.8569858
0.20603015075376882,0.8550495
0.20854271356783918,0.8531132
0.21105527638190955,0.85117674
0.2135678391959799,0.8492402
0.21608040201005024,0.84730387
0.2185929648241206,0.84536743
0.22110552763819097,0.843431
0.2236180904522613,0.8424375
0.22613065326633167,0.84145176
0.22864321608040203,0.840466
0.23115577889447236,0.8394803
0.23366834170854273,0.83849466
0.23618090452261306,0.8375088
0.2386934673366834,0.83655846
0.24120603015075376,0.8358065
0.24371859296482412,0.83549654
0.24623115577889446,0.8351865
0.24874371859296482,0.83487654
0.25125628140703515,0.8345665
0.2537688442211055,0.83425653
0.2562814070351759,0.8339466
0.25879396984924624,0.8336365
0.2613065326633166,0.8333266
0.26381909547738697,0.8328985
0.2663316582914573,0.83234596
0.26884422110552764,0.8317933
0.271356783919598,0.83124065
0.27386934673366836,0.830688
0.2763819095477387,0.83013535
0.2788944723618091,0.8295827
0.28140703517587945,0.82903004
0.28391959798994976,0.8284774
0.2864321608040201,0.82792485
0.2889447236180905,0.8273721
0.2914572864321608,0.82681954
0.29396984924623115,0.8262669
0.2964824120603015,0.82571423
0.2989949748743718,0.8251617
0.3015075376884422,0.8246089
0.30402010050251255,0.8240564
0.3065326633165829,0.82350373
0.30904522613065327,0.8229511
0.31155778894472363,0.8223984
0.314070351758794,0.82184577
0.3165829145728643,0.82129323
0.31909547738693467,0.8207406
0.32160804020100503,0.8201879
0.3241206030150754,0.8196353
0.32663316582914576,0.8190826
0.3291457286432161,0.81852996
0.3316582914572864,0.8179774
0.3341708542713568,0.8174248
0.33668341708542715,0.8168721
0.3391959798994975,0.81631947
0.3417085427135679,0.8157668
0.34422110552763824,0.81521416
0.3467336683417086,0.8146616
0.3492462311557789,0.81410897
0.35175879396984927,0.8135563
0.3542713567839196,0.81300366
0.35678391959798994,0.812451
0.3592964824120603,0.81189847
0.36180904522613067,0.8113458
0.364321608040201,0.81079316
0.36683417085427134,0.8102405
0.3693467336683417,0.80968785
0.37185929648241206,0.8091352
0.3743718592964824,0.80858254
0.3768844221105528,0.80803
0.3793969849246231,0.80747736
0.38190954773869346,0.8069247
0.3844221105527638,0.80637205
0.3869346733668342,0.8058194
0.38944723618090454,0.8052715
0.3919597989949749,0.80472887
0.39447236180904527,0.8041861
0.3969849246231156,0.80364347
0.39949748743718594,0.8031006
0.4020100502512563,0.80255795
0.40452261306532666,0.8020152
0.407035175879397,0.8014724
0.4095477386934674,0.8009298
0.4120603015075377,0.800387
0.41457286432160806,0.79984426
0.4170854271356784,0.7993015
0.41959798994974873,0.79875886
0.4221105527638191,0.7982161
0.42462311557788945,0.79767334
0.4271356783919598,0.7971306
0.4296482412060301,0.79658794
0.4321608040201005,0.79610145
0.43467336683417085,0.7929132
0.4371859296482412,0.78965366
0.4396984924623116,0.786394
0.44221105527638194,0.78313434
0.44472361809045224,0.7798747
0.4472361809045226,0.776615
0.44974874371859297,0.77335536
0.45226130653266333,0.7700957
0.4547738693467337,0.76683605
0.45728643216080406,0.7635765
0.45979899497487436,0.7565609
0.4623115577889447,0.7446896
0.4648241206030151,0.7330028
0.46733668341708545,0.72148
0.4698492462311558,0.70995724
0.4723618090452261,0.6984345
0.4748743718592965,0.6869118
0.4773869346733668,0.6753892
0.47989949748743715,0.6638664
0.4824120603015075,0.6523437
0.4849246231155779,0.64082104
0.48743718592964824,0.6226176
0.4899497487437186,0.59187764
0.4924623115577889,0.5611378
0.4949748743718593,0.52740073
0.49748743718592964,0.4657993
0.5,0.36016706
0.5025125628140703,0.4657993
0.5050251256281406,0.52740073
0.507537688442211,0.5611378
0.5100502512562813,0.59187764
0.5125628140703518,0.6226176
0.5150753768844221,0.64082104
0.5175879396984925,0.6523437
0.5201005025125628,0.6638664
0.5226130653266332,0.6753892
0.5251256281407035,0.6869118
0.5276381909547739,0.6984345
0.5301507537688442,0.70995724
0.5326633165829145,0.72148
0.5351758793969849,0.7330028
0.5376884422110553,0.7446896
0.5402010050251256,0.7565609
0.542713567839196,0.7635765
0.5452261306532663,0.76683605
0.5477386934673367,0.7700957
0.550251256281407,0.77335536
0.5527638190954774,0.776615
0.5552763819095478,0.7798747
0.5577889447236182,0.78313434
0.5603015075376885,0.786394
0.5628140703517589,0.78965366
0.5653266331658291,0.7929132
0.5678391959798994,0.79610145
0.5703517587939698,0.79658794
0.5728643216080401,0.7971306
0.5753768844221105,0.79767334
0.5778894472361809,0.7982161
0.5804020100502513,0.79875886
0.5829145728643216,0.7993015
0.585427135678392,0.79984426
0.5879396984924623,0.800387
0.5904522613065327,0.8009298
0.592964824120603,0.8014724
0.5954773869346734,0.8020152
0.5979899497487436,0.80255795
0.6005025125628141,0.8031006
0.6030150753768844,0.80364347
0.6055276381909548,0.8041861
0.6080402010050251,0.80472887
0.6105527638190955,0.8052715
0.6130653266331658,0.8058194
0.6155778894472362,0.80637205
0.6180904522613065,0.8069247
0.6206030150753769,0.80747736
0.6231155778894473,0.80803
0.6256281407035177,0.80858254
0.628140703517588,0.8091352
0.6306532663316582,0.80968785
0.6331658291457286,0.8102405
0.635678391959799,0.81079316
0.6381909547738693,0.8113458
0.6407035175879396,0.81189847
0.6432160804020101,0.812451
0.6457286432160804,0.81300366
0.6482412060301508,0.8135563
0.6507537688442211,0.81410897
0.6532663316582915,0.8146616
0.6557788944723618,0.81521416
0.6582914572864322,0.8157668
0.6608040201005025,0.81631947
0.6633165829145728,0.8168721
0.6658291457286432,0.8174248
0.6683417085427136,0.8179774
0.6708542713567839,0.81852996
0.6733668341708542,0.8190826
0.6758793969849246,0.8196353
0.678391959798995,0.8201879
0.6809045226130653,0.8207406
0.6834170854271356,0.82129323
0.6859296482412061,0.82184577
0.6884422110552765,0.8223984
0.6909547738693468,0.8229511
0.6934673366834171,0.82350373
0.6959798994974874,0.8240564
0.6984924623115578,0.8246089
0.7010050251256281,0.8251617
0.7035175879396984,0.82571423
0.7060301507537688,0.8262669
0.7085427135678392,0.82681954
0.7110552763819096,0.8273721
0.7135678391959799,0.82792485
0.7160804020100503,0.8284774
0.7185929648241206,0.82903004
0.721105527638191,0.8295827
0.7236180904522613,0.83013535
0.7261306532663316,0.830688
0.728643216080402,0.83124065
0.7311557788944724,0.8317933
0.7336683417085427,0.83234596
0.736180904522613,0.8328985
0.7386934673366834,0.8333266
0.7412060301507538,0.8336365
0.7437185929648241,0.8339466
0.7462311557788944,0.83425653
0.7487437185929648,0.8345665
0.7512562814070353,0.83487654
0.7537688442211056,0.8351865
0.7562814070351759,0.83549654
0.7587939698492462,0.8358065
0.7613065326633166,0.83655846
0.7638190954773869,0.8375088
0.7663316582914572,0.83849466
0.7688442211055276,0.8394803
0.771356783919598,0.840466
0.7738693467336684,0.84145176
0.7763819095477387,0.8424375
0.7788944723618091,0.843431
0.7814070351758795,0.84536743
0.7839195979899498,0.84730387
0.7864321608040201,0.8492402
0.7889447236180905,0.85117674
0.7914572864321607,0.8531132
0.7939698492462312,0.8550495
0.7964824120603015,0.8569858
0.7989949748743718,0.85892236
0.8015075376884422,0.8608587
0.8040201005025126,0.86284506
0.8065326633165829,0.8652102
0.8090452261306532,0.86757517
0.8115577889447236,0.8701904
0.814070351758794,0.8741708
0.8165829145728644,0.8781513
0.8190954773869347,0.8821318
0.8216080402010051,0.88552
0.8241206030150754,0.8885293
0.8266331658291457,0.8915386
0.829145728643216,0.89454806
0.8316582914572864,0.89759755
0.8341708542713568,0.9007555
0.8366834170854272,0.9039136
0.8391959798994975,0.9070716
0.8417085427135679,0.91022956
0.8442211055276383,0.9149692
0.8467336683417086,0.92235744
0.8492462311557789,0.9297458
0.8517587939698493,0.9371339
0.8542713567839196,0.94452226
0.8567839195979899,0.9519105
0.8592964824120602,0.95929885
0.8618090452261306,0.9666871
0.864321608040201,0.9740753
0.8668341708542714,0.9814637
0.8693467336683417,0.988852
0.871859296482412,0.99624026
0.8743718592964824,1.007866
0.8768844221105528,1.0235504
0.8793969849246231,1.0402206
0.8819095477386935,1.0568628
0.8844221105527639,1.0736936
0.8869346733668343,1.090891
0.8894472361809045,1.1180198
0.8919597989949748,1.1508527
0.8944723618090452,1.1836855
0.8969849246231156,1.2165298
0.8994974874371859,1.2550282
0.9020100502512562,1.2935265
0.9045226130653267,1.3351121
0.9070351758793971,1.3770394
0.9095477386934674,1.4249653
0.9120603015075377,1.4879673
0.9145728643216081,1.5552921
0.9170854271356785,1.622617
0.9195979899497487,1.6873069
0.922110552763819,1.7376595
0.9246231155778893,1.7565439
0.9271356783919598,1.7238114
0.9296482412060302,1.63888
0.9321608040201005,1.5081072
0.9346733668341708,1.3839422
0.9371859296482412,1.1663102
0.9396984924623116,0.8811313
0.9422110552763819,0.6694099
0.9447236180904522,0.5005802
0.9472361809045227,0.34091395
0.9497487437185931,0.24261634
0.9522613065326633,0.15917797
0.9547738693467336,0.0787628
0.957286432160804,1e-05
0.9597989949748744,1e-05
0.9623115577889447,1e-05
0.964824120603015,1e-05
0.9673366834170855,1e-05
0.9698492462311559,1e-05
0.9723618090452262,1e-05
0.9748743718592965,1e-05
0.9773869346733668,1e-05
0.9798994974874372,1e-05
0.9824120603015076,1e-05
0.9849246231155778,1e-05
0.9874371859296481,1e-05
0.9899497487437185,1e-05
0.992462311557789,1e-05
0.9949748743718593,1e-05
0.9974874371859296,1e-05
1.0,1e-05
