Normalized Coil Height [-],Air Velocity [m/s],CFM,angle,height
7.495012749763711e-05,-0.0124258715675,1030,17.8,0.53
0.0002649665458328995,-0.0453211402,1030,17.8,0.53
0.00045718148864615866,-0.07092478268,1030,17.8,0.53
0.0007176892920750579,-0.09427275739,1030,17.8,0.53
0.0010498367001411844,-0.1135329909,1030,17.8,0.53
0.0014999941953587868,-0.1260442746,1030,17.8,0.53
0.002073944914871335,-0.1340156097,1030,17.8,0.53
0.0028518171467762517,-0.1380259107,1030,17.8,0.53
0.003843604020135762,-0.140629679,1030,17.8,0.53
0.005419517388968692,-0.14324050654999998,1030,17.8,0.53
0.00896089336730841,-0.1462130531,1030,17.8,0.53
0.01433742956317142,-0.15294959505,1030,17.8,0.53
0.019713966628876808,-0.1571036152,1030,17.8,0.53
0.025090501953010578,-0.16182473260000002,1030,17.8,0.53
0.032259217180838635,-0.1665773641,1030,17.8,0.53
0.03763575160871399,-0.1690384799,1030,17.8,0.53
0.04301228956501721,-0.17363803735,1030,17.8,0.53
0.04838882401176117,-0.1740385241,1030,17.8,0.53
0.05376536195863009,-0.18302545225,1030,17.8,0.53
0.05914189639593975,-0.1841607993,1030,17.8,0.53
0.0645184308426837,-0.1898939663,1030,17.8,0.53
0.06989496527055905,-0.195612384,1030,17.8,0.53
0.07527150674585585,-0.2032375668,1030,17.8,0.53
0.0806480411831655,-0.211106791,1030,17.8,0.53
0.08602457562047515,-0.21389282845000002,1030,17.8,0.53
0.09140111005778481,-0.2212680999,1030,17.8,0.53
0.09677764801408804,-0.22666946825,1030,17.8,0.53
0.10215418597039126,-0.2358517107,1030,17.8,0.53
0.10753072040770092,-0.23718811005,1030,17.8,0.53
0.11469943299392522,-0.23936675340000002,1030,17.8,0.53
0.12007597445978771,-0.2400685168,1030,17.8,0.53
0.1254525053781038,-0.23751190365000002,1030,17.8,0.53
0.1308290363152885,-0.2143138355,1030,17.8,0.53
0.1362055742621574,-0.1924396291,1030,17.8,0.53
0.14158211220902633,-0.1575764653,1030,17.8,0.53
0.14695865017476387,-0.093107095725,1030,17.8,0.53
0.15233518812163277,-0.04046246732,1030,17.8,0.53
0.15771171903994888,0.07353175717999999,1030,17.8,0.53
0.16308826403423923,0.2012122875,1030,17.8,0.53
0.16846479495255534,0.3605459157,1030,17.8,0.53
0.1738413258708714,0.5697020147,1030,17.8,0.53
0.17921786383660893,0.77456604425,1030,17.8,0.53
0.18638658344195178,1.120321101,1030,17.8,0.53
0.19176311432253068,1.395952672,1030,17.8,0.53
0.19713965232600536,1.6790197655,1030,17.8,0.53
0.2025161903294801,1.87197653,1030,17.8,0.53
0.20789272125723046,2.182586317,1030,17.8,0.53
0.21326926614774355,2.444962987,1030,17.8,0.53
0.21864579707549392,2.631601139,1030,17.8,0.53
0.22402232800324431,2.779083718,1030,17.8,0.53
0.22939886591237604,2.8174262050000003,1030,17.8,0.53
0.23477540401019376,2.813436546,1030,17.8,0.53
0.24015194890070682,2.746392601,1030,17.8,0.53
0.24552847982845724,2.683139019,1030,17.8,0.53
0.2509050248133132,2.5698034625,1030,17.8,0.53
0.256281541683958,2.499853771,1030,17.8,0.53
0.261658086668814,2.38957643,1030,17.8,0.53
0.2688268132838411,2.2565140780000004,1030,17.8,0.53
0.2742033302488288,2.168840014,1030,17.8,0.53
0.2795798751393419,2.0887854435,1030,17.8,0.53
0.28495642021854095,2.019629719,1030,17.8,0.53
0.29033295105194834,1.9463218334999999,1030,17.8,0.53
0.29570948207404174,1.896363757,1030,17.8,0.53
0.3010860269645548,1.833789902,1030,17.8,0.53
0.3064625720437539,1.794565109,1030,17.8,0.53
0.31183908882005557,1.7543411105,1030,17.8,0.53
0.3172156338992546,1.714761868,1030,17.8,0.53
0.322592164732662,1.68144851,1030,17.8,0.53
0.32796869556606945,1.649267996,1030,17.8,0.53
0.33334524064526844,1.6272729685,1030,17.8,0.53
0.3387217855357815,1.602820306,1030,17.8,0.53
0.3440983025007692,1.5826965005,1030,17.8,0.53
0.3512670291157963,1.555430366,1030,17.8,0.53
0.3566435741006524,1.542278937,1030,17.8,0.53
0.36202009097129706,1.523576568,1030,17.8,0.53
0.36739663595615313,1.50706269,1030,17.8,0.53
0.37277316688390355,1.491901494,1030,17.8,0.53
0.3781496978116539,1.476470211,1030,17.8,0.53
0.38352624279651,1.465539307,1030,17.8,0.53
0.38890278778136605,1.451811869,1030,17.8,0.53
0.3942793046520107,1.4428428065,1030,17.8,0.53
0.3996558496368668,1.432030159,1030,17.8,0.53
0.40503239462172286,1.422024368,1030,17.8,0.53
0.4104089114923676,1.415199785,1030,17.8,0.53
0.41578545647722365,1.406248409,1030,17.8,0.53
0.42295418309225075,1.395806694,1030,17.8,0.53
0.42833070005723844,1.389889921,1030,17.8,0.53
0.43370724494775154,1.3816366274999998,1030,17.8,0.53
0.43908378983826457,1.375467354,1030,17.8,0.53
0.44446030680325227,1.36934043,1030,17.8,0.53
0.44983685169376536,1.363314135,1030,17.8,0.53
0.4552133967729644,1.357952676,1030,17.8,0.53
0.4605899135492661,1.353837924,1030,17.8,0.53
0.46596645862846514,1.3487051095,1030,17.8,0.53
0.47134300351897823,1.343917499,1030,17.8,0.53
0.47671953454107163,1.339358216,1030,17.8,0.53
0.4820960372602676,1.335611218,1030,17.8,0.53
0.48747259639657237,1.3319494605,1030,17.8,0.53
0.49284909911576846,1.328103108,1030,17.8,0.53
0.4982256582520732,1.3251967224999999,1030,17.8,0.53
0.5053943848671002,1.321082146,1030,17.8,0.53
0.5107708876806393,1.318616186,1030,17.8,0.53
0.516147446722601,1.3158930660000001,1030,17.8,0.53
0.5215240057645628,1.313437978,1030,17.8,0.53
0.5269005085781018,1.3111137135,1030,17.8,0.53
0.5322770676200635,1.308535993,1030,17.8,0.53
0.5376535985478139,1.307238102,1030,17.8,0.53
0.5430301294755643,1.305369894,1030,17.8,0.53
0.5484066603089717,1.3035186235,1030,17.8,0.53
0.553783191331065,1.302201411,1030,17.8,0.53
0.5591597502786838,1.3001235370000002,1030,17.8,0.53
0.5645362531865658,1.29856057,1030,17.8,0.53
0.5699128121341845,1.2974366655,1030,17.8,0.53
0.5752893712704893,1.296233919,1030,17.8,0.53
0.5806658739896853,1.295107204,1030,17.8,0.53
0.5878346006990555,1.2934818335,1030,17.8,0.53
0.5932111596466741,1.292487848,1030,17.8,0.53
0.5985876625545562,1.2916181995,1030,17.8,0.53
0.603964221502175,1.290637282,1030,17.8,0.53
0.6093407525242682,1.2902533745,1030,17.8,0.53
0.6147172833576757,1.289196965,1030,17.8,0.53
0.6200938143797691,1.2891004494999998,1030,17.8,0.53
0.6254703452131765,1.288621276,1030,17.8,0.53
0.6308468762352699,1.2874757455,1030,17.8,0.53
0.6362234070686772,1.287251766,1030,17.8,0.53
0.6415999662049819,1.287005301,1030,17.8,0.53
0.646976468924178,1.286408847,1030,17.8,0.53
0.6523530279661398,1.2851091945,1030,17.8,0.53
0.6595217545811669,1.2852755949999999,1030,17.8,0.53
0.6648982574890488,1.285546029,1030,17.8,0.53
0.6702748164366676,1.2852446405,1030,17.8,0.53
0.6756513755729724,1.284565994,1030,17.8,0.53
0.6810278782921684,1.284224874,1030,17.8,0.53
0.6864044374284731,1.283297973,1030,17.8,0.53
0.6917809682618805,1.2844679010000002,1030,17.8,0.53
0.6971574992839739,1.284055584,1030,17.8,0.53
0.7025340301173812,1.283383992,1030,17.8,0.53
0.7079105611394747,1.282528876,1030,17.8,0.53
0.7132871200870934,1.2827649775,1030,17.8,0.53
0.7186636229949754,1.282716207,1030,17.8,0.53
0.7240401819425941,1.2823905045,1030,17.8,0.53
0.7294167410788989,1.281652242,1030,17.8,0.53
0.734793243798095,1.281386282,1030,17.8,0.53
0.741961970507465,1.2811276020000002,1030,17.8,0.53
0.747338473226661,1.28064025,1030,17.8,0.53
0.7527150323629658,1.280014652,1030,17.8,0.53
0.7580915913105846,1.279169657,1030,17.8,0.53
0.7634680941241235,1.2788863364999998,1030,17.8,0.53
0.7688446531660853,1.278191787,1030,17.8,0.53
0.7742211840938356,1.277103638,1030,17.8,0.53
0.779597715021586,1.276634706,1030,17.8,0.53
0.7849742459493366,1.2746371404999999,1030,17.8,0.53
0.7903507768770869,1.272743356,1030,17.8,0.53
0.7957273359190485,1.270558432,1030,17.8,0.53
0.8011038387325876,1.268928578,1030,17.8,0.53
0.8064803977745494,1.263996182,1030,17.8,0.53
0.8118569568165112,1.261562234,1030,17.8,0.53
0.8172334596300502,1.2573485345,1030,17.8,0.53
0.8244021862450772,1.2528732435,1030,17.8,0.53
0.829778745381382,1.245930166,1030,17.8,0.53
0.835155248100578,1.2387117074999998,1030,17.8,0.53
0.8405318072368827,1.230990895,1030,17.8,0.53
0.8459083380702901,1.2201190044999999,1030,17.8,0.53
0.8512848690923835,1.21060411,1030,17.8,0.53
0.8566613999257909,1.1946142124999999,1030,17.8,0.53
0.8620379309478843,1.184844931,1030,17.8,0.53
0.8674144617812917,1.172543658,1030,17.8,0.53
0.8727909926146991,1.160109651,1030,17.8,0.53
0.8781675517510038,1.14796143,1030,17.8,0.53
0.8835440544701998,1.130503992,1030,17.8,0.53
0.8889206136065045,1.108450341,1030,17.8,0.53
0.8960893402215315,1.0916115095,1030,17.8,0.53
0.9014658430350707,1.07090377,1030,17.8,0.53
0.9068424020770324,1.0541222545,1030,17.8,0.53
0.9122189611189941,1.03089687,1030,17.8,0.53
0.9175954639325332,1.0058632144500002,1030,17.8,0.53
0.922972022974495,0.9830305738,1030,17.8,0.53
0.9283485539022452,0.953805827,1030,17.8,0.53
0.9337250848299957,0.9319050314,1030,17.8,0.53
0.939101615757746,0.88761165475,1030,17.8,0.53
0.9444782029139192,0.8583799416,1030,17.8,0.53
0.9498547338416695,0.8186714018,1030,17.8,0.53
0.95523126476942,0.7635881745,1030,17.8,0.53
0.9606077956971703,0.7200539459,1030,17.8,0.53
0.9659843266249207,0.65864919,1030,17.8,0.53
0.971360857458328,0.5917873837500001,1030,17.8,0.53
0.9785295841676982,0.43514561085000003,1030,17.8,0.53
0.983906058772683,0.3429555276,1030,17.8,0.53
0.9892826460231989,0.245080446,1030,17.8,0.53
0.9938804088625302,0.09753632327,1030,17.8,0.53
0.995772080460019,0.059058284234999994,1030,17.8,0.53
0.9968922379073312,0.03674354652,1030,17.8,0.53
0.9977186913775707,0.037896958775,1030,17.8,0.53
0.9983668869737966,0.03939374433,1030,17.8,0.53
0.9988452031083621,0.03613063857,1030,17.8,0.53
0.999220275934052,0.02458112633,1030,17.8,0.53
0.9994971100635146,0.008959837828,1030,17.8,0.53
0.999714224890928,-0.002544816615,1030,17.8,0.53
0.9998743759863754,-0.0056034644385,1030,17.8,0.53
1.0,-0.002948963152,1030,17.8,0.53
