Normalized Coil Height [-],Air Velocity [m/s],CFM,angle,height
7.495012749763711e-05,-0.0103977022665,790,23.4,0.53
0.0002649665458328995,-0.038145722704999996,790,23.4,0.53
0.00045718148864615866,-0.05985770224,790,23.4,0.53
0.0007176892920750579,-0.07917215523,790,23.4,0.53
0.0010498367001411844,-0.09560275,790,23.4,0.53
0.0014999941953587868,-0.10773415155,790,23.4,0.53
0.002073944914871335,-0.1164332591,790,23.4,0.53
0.0028518171467762517,-0.12155347305,790,23.4,0.53
0.003843604020135762,-0.1247345361,790,23.4,0.53
0.005419517388968692,-0.12829849585,790,23.4,0.53
0.00896089336730841,-0.1311954634,790,23.4,0.53
0.01433742956317142,-0.1414853371,790,23.4,0.53
0.019713966628876808,-0.1495498638,790,23.4,0.53
0.025090501953010578,-0.1602066758,790,23.4,0.53
0.032259217180838635,-0.172065733,790,23.4,0.53
0.03763575160871399,-0.1809903934,790,23.4,0.53
0.04301228956501721,-0.19621745145,790,23.4,0.53
0.04838882401176117,-0.1964192086,790,23.4,0.53
0.05376536195863009,-0.21825847734999998,790,23.4,0.53
0.05914189639593975,-0.2127967252,790,23.4,0.53
0.0645184308426837,-0.20732620680000002,790,23.4,0.53
0.06989496527055905,-0.1965907552,790,23.4,0.53
0.07527150674585585,-0.15774457135,790,23.4,0.53
0.0806480411831655,-0.1317650412,790,23.4,0.53
0.08602457562047515,-0.067528388615,790,23.4,0.53
0.09140111005778481,0.009837264181,790,23.4,0.53
0.09677764801408804,0.080361355565,790,23.4,0.53
0.10215418597039126,0.1808924282,790,23.4,0.53
0.10753072040770092,0.29582428595,790,23.4,0.53
0.11469943299392522,0.51647317055,790,23.4,0.53
0.12007597445978771,0.7270852925,790,23.4,0.53
0.1254525053781038,0.97820982005,790,23.4,0.53
0.1308290363152885,1.278300435,790,23.4,0.53
0.1362055742621574,1.5474484295,790,23.4,0.53
0.14158211220902633,1.759334124,790,23.4,0.53
0.14695865017476387,1.8812596005,790,23.4,0.53
0.15233518812163277,1.914913895,790,23.4,0.53
0.15771171903994888,1.9160306930000002,790,23.4,0.53
0.16308826403423923,1.871814672,790,23.4,0.53
0.16846479495255534,1.8031424375,790,23.4,0.53
0.1738413258708714,1.733160052,790,23.4,0.53
0.17921786383660893,1.663997127,790,23.4,0.53
0.18638658344195178,1.5703955725,790,23.4,0.53
0.19176311432253068,1.503032106,790,23.4,0.53
0.19713965232600536,1.444050758,790,23.4,0.53
0.2025161903294801,1.400825016,790,23.4,0.53
0.20789272125723046,1.3494266105000001,790,23.4,0.53
0.21326926614774355,1.310821548,790,23.4,0.53
0.21864579707549392,1.2731714135,790,23.4,0.53
0.22402232800324431,1.239383552,790,23.4,0.53
0.22939886591237604,1.2104252535,790,23.4,0.53
0.23477540401019376,1.186864464,790,23.4,0.53
0.24015194890070682,1.1628282269999999,790,23.4,0.53
0.24552847982845724,1.146091599,790,23.4,0.53
0.2509050248133132,1.1236512040000002,790,23.4,0.53
0.256281541683958,1.110595536,790,23.4,0.53
0.261658086668814,1.0943632245,790,23.4,0.53
0.2688268132838411,1.0757395585,790,23.4,0.53
0.2742033302488288,1.063056131,790,23.4,0.53
0.2795798751393419,1.0522451835,790,23.4,0.53
0.28495642021854095,1.043225952,790,23.4,0.53
0.29033295105194834,1.0334617540000002,790,23.4,0.53
0.29570948207404174,1.026833886,790,23.4,0.53
0.3010860269645548,1.0181461354999999,790,23.4,0.53
0.3064625720437539,1.012729322,790,23.4,0.53
0.31183908882005557,1.005597108,790,23.4,0.53
0.3172156338992546,0.9989869044,790,23.4,0.53
0.322592164732662,0.9926576246500001,790,23.4,0.53
0.32796869556606945,0.9872215083,790,23.4,0.53
0.33334524064526844,0.98279893885,790,23.4,0.53
0.3387217855357815,0.9780911237,790,23.4,0.53
0.3440983025007692,0.97387139295,790,23.4,0.53
0.3512670291157963,0.96798319395,790,23.4,0.53
0.3566435741006524,0.9655509412,790,23.4,0.53
0.36202009097129706,0.9615202801,790,23.4,0.53
0.36739663595615313,0.958041581,790,23.4,0.53
0.37277316688390355,0.954919675,790,23.4,0.53
0.3781496978116539,0.951764203,790,23.4,0.53
0.38352624279651,0.9494000924999999,790,23.4,0.53
0.38890278778136605,0.9468006138,790,23.4,0.53
0.3942793046520107,0.9443520763,790,23.4,0.53
0.3996558496368668,0.9417471347,790,23.4,0.53
0.40503239462172286,0.94000457225,790,23.4,0.53
0.4104089114923676,0.9381628431,790,23.4,0.53
0.41578545647722365,0.9359028989,790,23.4,0.53
0.42295418309225075,0.9335907966,790,23.4,0.53
0.42833070005723844,0.9322326058,790,23.4,0.53
0.43370724494775154,0.9302919997,790,23.4,0.53
0.43908378983826457,0.9288882547,790,23.4,0.53
0.44446030680325227,0.92744977105,790,23.4,0.53
0.44983685169376536,0.9258490569,790,23.4,0.53
0.4552133967729644,0.92460375205,790,23.4,0.53
0.4605899135492661,0.9236141688,790,23.4,0.53
0.46596645862846514,0.9223463878,790,23.4,0.53
0.47134300351897823,0.9211595803,790,23.4,0.53
0.47671953454107163,0.9200989452,790,23.4,0.53
0.4820960372602676,0.9191490596,790,23.4,0.53
0.48747259639657237,0.9181836712,790,23.4,0.53
0.49284909911576846,0.9171992458,790,23.4,0.53
0.4982256582520732,0.91651111,790,23.4,0.53
0.5053943848671002,0.9154258873500001,790,23.4,0.53
0.5107708876806393,0.9148427647,790,23.4,0.53
0.516147446722601,0.91416029655,790,23.4,0.53
0.5215240057645628,0.9135021149,790,23.4,0.53
0.5269005085781018,0.91275499875,790,23.4,0.53
0.5322770676200635,0.9122113565,790,23.4,0.53
0.5376535985478139,0.91177123275,790,23.4,0.53
0.5430301294755643,0.9111569482,790,23.4,0.53
0.5484066603089717,0.910813865,790,23.4,0.53
0.553783191331065,0.9104347186,790,23.4,0.53
0.5591597502786838,0.9099287985,790,23.4,0.53
0.5645362531865658,0.9095611435,790,23.4,0.53
0.5699128121341845,0.9091880976,790,23.4,0.53
0.5752893712704893,0.9088156814,790,23.4,0.53
0.5806658739896853,0.9085407534500001,790,23.4,0.53
0.5878346006990555,0.9081140115999999,790,23.4,0.53
0.5932111596466741,0.9077389833,790,23.4,0.53
0.5985876625545562,0.90755876925,790,23.4,0.53
0.603964221502175,0.9062389185,790,23.4,0.53
0.6093407525242682,0.9067810268500001,790,23.4,0.53
0.6147172833576757,0.9064451047,790,23.4,0.53
0.6200938143797691,0.9069264831499999,790,23.4,0.53
0.6254703452131765,0.9066425363,790,23.4,0.53
0.6308468762352699,0.90619076575,790,23.4,0.53
0.6362234070686772,0.9060949468,790,23.4,0.53
0.6415999662049819,0.9053237109,790,23.4,0.53
0.646976468924178,0.9050846201,790,23.4,0.53
0.6523530279661398,0.9050064849,790,23.4,0.53
0.6595217545811669,0.9051407897,790,23.4,0.53
0.6648982574890488,0.9047114612,790,23.4,0.53
0.6702748164366676,0.9053304765,790,23.4,0.53
0.6756513755729724,0.9049988267,790,23.4,0.53
0.6810278782921684,0.90491833165,790,23.4,0.53
0.6864044374284731,0.9046669181,790,23.4,0.53
0.6917809682618805,0.9042356405,790,23.4,0.53
0.6971574992839739,0.9038649606,790,23.4,0.53
0.7025340301173812,0.90370390155,790,23.4,0.53
0.7079105611394747,0.9031059194,790,23.4,0.53
0.7132871200870934,0.9036251703,790,23.4,0.53
0.7186636229949754,0.902987394,790,23.4,0.53
0.7240401819425941,0.90335741575,790,23.4,0.53
0.7294167410788989,0.9029344656,790,23.4,0.53
0.734793243798095,0.9020263882999999,790,23.4,0.53
0.741961970507465,0.9026297145,790,23.4,0.53
0.747338473226661,0.9020996615,790,23.4,0.53
0.7527150323629658,0.9014602010499999,790,23.4,0.53
0.7580915913105846,0.9005350189,790,23.4,0.53
0.7634680941241235,0.9008038604999999,790,23.4,0.53
0.7688446531660853,0.9004002078,790,23.4,0.53
0.7742211840938356,0.8986326757,790,23.4,0.53
0.779597715021586,0.9005587374,790,23.4,0.53
0.7849742459493366,0.89904536675,790,23.4,0.53
0.7903507768770869,0.8984198014,790,23.4,0.53
0.7957273359190485,0.89470107155,790,23.4,0.53
0.8011038387325876,0.8976037934,790,23.4,0.53
0.8064803977745494,0.895629129,790,23.4,0.53
0.8118569568165112,0.8950072995,790,23.4,0.53
0.8172334596300502,0.89408601795,790,23.4,0.53
0.8244021862450772,0.8924727187,790,23.4,0.53
0.829778745381382,0.8904309119,790,23.4,0.53
0.835155248100578,0.8884827456,790,23.4,0.53
0.8405318072368827,0.8885843836,790,23.4,0.53
0.8459083380702901,0.8859223965,790,23.4,0.53
0.8512848690923835,0.8845411154,790,23.4,0.53
0.8566613999257909,0.8804311313,790,23.4,0.53
0.8620379309478843,0.879058126,790,23.4,0.53
0.8674144617812917,0.8770750225999999,790,23.4,0.53
0.8727909926146991,0.8740483011,790,23.4,0.53
0.8781675517510038,0.8703493261999999,790,23.4,0.53
0.8835440544701998,0.8674753128,790,23.4,0.53
0.8889206136065045,0.86135665255,790,23.4,0.53
0.8960893402215315,0.8563297801,790,23.4,0.53
0.9014658430350707,0.8499430283,790,23.4,0.53
0.9068424020770324,0.84391550675,790,23.4,0.53
0.9122189611189941,0.8364234,790,23.4,0.53
0.9175954639325332,0.8241457244999999,790,23.4,0.53
0.922972022974495,0.8178105853,790,23.4,0.53
0.9283485539022452,0.80800143925,790,23.4,0.53
0.9337250848299957,0.7991263487,790,23.4,0.53
0.939101615757746,0.7798297670000001,790,23.4,0.53
0.9444782029139192,0.7700908662,790,23.4,0.53
0.9498547338416695,0.7540730086,790,23.4,0.53
0.95523126476942,0.7260860711,790,23.4,0.53
0.9606077956971703,0.7081557745,790,23.4,0.53
0.9659843266249207,0.6804437239,790,23.4,0.53
0.971360857458328,0.6529245486999999,790,23.4,0.53
0.9785295841676982,0.5927794637,790,23.4,0.53
0.983906058772683,0.5400371998,790,23.4,0.53
0.9892826460231989,0.47939236595,790,23.4,0.53
0.9938804088625302,0.398090631,790,23.4,0.53
0.995772080460019,0.39325561124999997,790,23.4,0.53
0.9968922379073312,0.3653419877,790,23.4,0.53
0.9977186913775707,0.3449652895,790,23.4,0.53
0.9983668869737966,0.3309838008,790,23.4,0.53
0.9988452031083621,0.3212535576,790,23.4,0.53
0.999220275934052,0.306787671,790,23.4,0.53
0.9994971100635146,0.27552813495,790,23.4,0.53
0.999714224890928,0.2236340591,790,23.4,0.53
0.9998743759863754,0.12715723117,790,23.4,0.53
1.0,0.0257290014,790,23.4,0.53
