Normalized Coil Height [-],Air Velocity [m/s],CFM,angle,height
7.495012749763711e-05,-0.019079964583,1420,23.4,0.53
0.0002649665458328995,-0.069456142165,1420,23.4,0.53
0.00045718148864615866,-0.108571895,1420,23.4,0.53
0.0007176892920750579,-0.1440375077,1420,23.4,0.53
0.0010498367001411844,-0.1728403862,1420,23.4,0.53
0.0014999941953587868,-0.19063002065,1420,23.4,0.53
0.002073944914871335,-0.2033326186,1420,23.4,0.53
0.0028518171467762517,-0.21123918149999998,1420,23.4,0.53
0.003843604020135762,-0.2172474037,1420,23.4,0.53
0.005419517388968692,-0.22277354355,1420,23.4,0.53
0.00896089336730841,-0.22922587,1420,23.4,0.53
0.01433742956317142,-0.24057596375,1420,23.4,0.53
0.019713966628876808,-0.2468927781,1420,23.4,0.53
0.025090501953010578,-0.25419947135,1420,23.4,0.53
0.032259217180838635,-0.26063996445,1420,23.4,0.53
0.03763575160871399,-0.2668399325,1420,23.4,0.53
0.04301228956501721,-0.27715254045,1420,23.4,0.53
0.04838882401176117,-0.2767287005,1420,23.4,0.53
0.05376536195863009,-0.29541601565,1420,23.4,0.53
0.05914189639593975,-0.2977976266,1420,23.4,0.53
0.0645184308426837,-0.31128144455,1420,23.4,0.53
0.06989496527055905,-0.3233947842,1420,23.4,0.53
0.07527150674585585,-0.3304658043,1420,23.4,0.53
0.0806480411831655,-0.3402315197,1420,23.4,0.53
0.08602457562047515,-0.32091467915,1420,23.4,0.53
0.09140111005778481,-0.3005273551,1420,23.4,0.53
0.09677764801408804,-0.2693051438,1420,23.4,0.53
0.10215418597039126,-0.2152035655,1420,23.4,0.53
0.10753072040770092,-0.1503097343,1420,23.4,0.53
0.11469943299392522,-0.030014962483,1420,23.4,0.53
0.12007597445978771,0.08221844409,1420,23.4,0.53
0.1254525053781038,0.2248947657,1420,23.4,0.53
0.1308290363152885,0.441190168,1420,23.4,0.53
0.1362055742621574,0.7335659901,1420,23.4,0.53
0.14158211220902633,1.088774559,1420,23.4,0.53
0.14695865017476387,1.5725077349999999,1420,23.4,0.53
0.15233518812163277,2.009845601,1420,23.4,0.53
0.15771171903994888,2.736512212,1420,23.4,0.53
0.16308826403423923,3.269155826,1420,23.4,0.53
0.16846479495255534,3.5138416185,1420,23.4,0.53
0.1738413258708714,3.642135903,1420,23.4,0.53
0.17921786383660893,3.6182160845,1420,23.4,0.53
0.18638658344195178,3.5164185165,1420,23.4,0.53
0.19176311432253068,3.353144549,1420,23.4,0.53
0.19713965232600536,3.1985086415,1420,23.4,0.53
0.2025161903294801,3.080366782,1420,23.4,0.53
0.20789272125723046,2.9293717304999998,1420,23.4,0.53
0.21326926614774355,2.806811639,1420,23.4,0.53
0.21864579707549392,2.6883052625,1420,23.4,0.53
0.22402232800324431,2.583272099,1420,23.4,0.53
0.22939886591237604,2.495371498,1420,23.4,0.53
0.23477540401019376,2.427596903,1420,23.4,0.53
0.24015194890070682,2.356369611,1420,23.4,0.53
0.24552847982845724,2.309392843,1420,23.4,0.53
0.2509050248133132,2.246962174,1420,23.4,0.53
0.256281541683958,2.210868741,1420,23.4,0.53
0.261658086668814,2.167003717,1420,23.4,0.53
0.2688268132838411,2.11749097,1420,23.4,0.53
0.2742033302488288,2.083048358,1420,23.4,0.53
0.2795798751393419,2.0542740755,1420,23.4,0.53
0.28495642021854095,2.029599253,1420,23.4,0.53
0.29033295105194834,2.003586699,1420,23.4,0.53
0.29570948207404174,1.985864743,1420,23.4,0.53
0.3010860269645548,1.9636457505,1420,23.4,0.53
0.3064625720437539,1.949171563,1420,23.4,0.53
0.31183908882005557,1.9308012135000001,1420,23.4,0.53
0.3172156338992546,1.91369848,1420,23.4,0.53
0.322592164732662,1.8969326844999999,1420,23.4,0.53
0.32796869556606945,1.883458434,1420,23.4,0.53
0.33334524064526844,1.8718281970000001,1420,23.4,0.53
0.3387217855357815,1.859702164,1420,23.4,0.53
0.3440983025007692,1.8488135890000001,1420,23.4,0.53
0.3512670291157963,1.8331720974999999,1420,23.4,0.53
0.3566435741006524,1.827134747,1420,23.4,0.53
0.36202009097129706,1.816519449,1420,23.4,0.53
0.36739663595615313,1.807366737,1420,23.4,0.53
0.37277316688390355,1.7991879759999998,1420,23.4,0.53
0.3781496978116539,1.791269139,1420,23.4,0.53
0.38352624279651,1.784790821,1420,23.4,0.53
0.38890278778136605,1.777920413,1420,23.4,0.53
0.3942793046520107,1.7716938304999998,1420,23.4,0.53
0.3996558496368668,1.765063826,1420,23.4,0.53
0.40503239462172286,1.760242137,1420,23.4,0.53
0.4104089114923676,1.755564068,1420,23.4,0.53
0.41578545647722365,1.7498066225,1420,23.4,0.53
0.42295418309225075,1.7438817659999999,1420,23.4,0.53
0.42833070005723844,1.740354093,1420,23.4,0.53
0.43370724494775154,1.735124358,1420,23.4,0.53
0.43908378983826457,1.731561349,1420,23.4,0.53
0.44446030680325227,1.7279748485000002,1420,23.4,0.53
0.44983685169376536,1.723822433,1420,23.4,0.53
0.4552133967729644,1.720522122,1420,23.4,0.53
0.4605899135492661,1.717895986,1420,23.4,0.53
0.46596645862846514,1.7145851665,1420,23.4,0.53
0.47134300351897823,1.711426765,1420,23.4,0.53
0.47671953454107163,1.708636882,1420,23.4,0.53
0.4820960372602676,1.706142574,1420,23.4,0.53
0.48747259639657237,1.7035585815,1420,23.4,0.53
0.49284909911576846,1.700960306,1420,23.4,0.53
0.4982256582520732,1.699103727,1420,23.4,0.53
0.5053943848671002,1.696389705,1420,23.4,0.53
0.5107708876806393,1.69469872,1420,23.4,0.53
0.516147446722601,1.6928526444999998,1420,23.4,0.53
0.5215240057645628,1.691020317,1420,23.4,0.53
0.5269005085781018,1.689049002,1420,23.4,0.53
0.5322770676200635,1.687511333,1420,23.4,0.53
0.5376535985478139,1.686286034,1420,23.4,0.53
0.5430301294755643,1.684505575,1420,23.4,0.53
0.5484066603089717,1.683422529,1420,23.4,0.53
0.553783191331065,1.682374517,1420,23.4,0.53
0.5591597502786838,1.68096704,1420,23.4,0.53
0.5645362531865658,1.679897792,1420,23.4,0.53
0.5699128121341845,1.67882905,1420,23.4,0.53
0.5752893712704893,1.677726316,1420,23.4,0.53
0.5806658739896853,1.6768492345000001,1420,23.4,0.53
0.5878346006990555,1.675615981,1420,23.4,0.53
0.5932111596466741,1.674585299,1420,23.4,0.53
0.5985876625545562,1.6740177585,1420,23.4,0.53
0.603964221502175,1.671185135,1420,23.4,0.53
0.6093407525242682,1.6720702805,1420,23.4,0.53
0.6147172833576757,1.671044921,1420,23.4,0.53
0.6200938143797691,1.6718553090000001,1420,23.4,0.53
0.6254703452131765,1.67116479,1420,23.4,0.53
0.6308468762352699,1.6701194985,1420,23.4,0.53
0.6362234070686772,1.669711167,1420,23.4,0.53
0.6415999662049819,1.668005127,1420,23.4,0.53
0.646976468924178,1.667360138,1420,23.4,0.53
0.6523530279661398,1.666996794,1420,23.4,0.53
0.6595217545811669,1.6672257584999999,1420,23.4,0.53
0.6648982574890488,1.666055005,1420,23.4,0.53
0.6702748164366676,1.66727634,1420,23.4,0.53
0.6756513755729724,1.666637046,1420,23.4,0.53
0.6810278782921684,1.6664133799999998,1420,23.4,0.53
0.6864044374284731,1.665889084,1420,23.4,0.53
0.6917809682618805,1.6647552184999999,1420,23.4,0.53
0.6971574992839739,1.663822115,1420,23.4,0.53
0.7025340301173812,1.6636648065,1420,23.4,0.53
0.7079105611394747,1.66239685,1420,23.4,0.53
0.7132871200870934,1.6635473125,1420,23.4,0.53
0.7186636229949754,1.662238809,1420,23.4,0.53
0.7240401819425941,1.662965308,1420,23.4,0.53
0.7294167410788989,1.662220428,1420,23.4,0.53
0.734793243798095,1.660412126,1420,23.4,0.53
0.741961970507465,1.6616849459999998,1420,23.4,0.53
0.747338473226661,1.660892928,1420,23.4,0.53
0.7527150323629658,1.659700347,1420,23.4,0.53
0.7580915913105846,1.658072115,1420,23.4,0.53
0.7634680941241235,1.6586666115000002,1420,23.4,0.53
0.7688446531660853,1.65808725,1420,23.4,0.53
0.7742211840938356,1.654832008,1420,23.4,0.53
0.779597715021586,1.658589269,1420,23.4,0.53
0.7849742459493366,1.6561683999999999,1420,23.4,0.53
0.7903507768770869,1.655266343,1420,23.4,0.53
0.7957273359190485,1.6481009334999999,1420,23.4,0.53
0.8011038387325876,1.65389911,1420,23.4,0.53
0.8064803977745494,1.6507052755,1420,23.4,0.53
0.8118569568165112,1.649885618,1420,23.4,0.53
0.8172334596300502,1.6484589075,1420,23.4,0.53
0.8244021862450772,1.645924586,1420,23.4,0.53
0.829778745381382,1.642806967,1420,23.4,0.53
0.835155248100578,1.6384228095,1420,23.4,0.53
0.8405318072368827,1.640148165,1420,23.4,0.53
0.8459083380702901,1.635945837,1420,23.4,0.53
0.8512848690923835,1.633714687,1420,23.4,0.53
0.8566613999257909,1.626711201,1420,23.4,0.53
0.8620379309478843,1.624632676,1420,23.4,0.53
0.8674144617812917,1.621816887,1420,23.4,0.53
0.8727909926146991,1.616941734,1420,23.4,0.53
0.8781675517510038,1.610881314,1420,23.4,0.53
0.8835440544701998,1.6066088,1420,23.4,0.53
0.8889206136065045,1.5964116635,1420,23.4,0.53
0.8960893402215315,1.5889394675,1420,23.4,0.53
0.9014658430350707,1.580155397,1420,23.4,0.53
0.9068424020770324,1.5670677474999999,1420,23.4,0.53
0.9122189611189941,1.559890153,1420,23.4,0.53
0.9175954639325332,1.5327994440000001,1420,23.4,0.53
0.922972022974495,1.522532984,1420,23.4,0.53
0.9283485539022452,1.5096428020000001,1420,23.4,0.53
0.9337250848299957,1.493735789,1420,23.4,0.53
0.939101615757746,1.456180077,1420,23.4,0.53
0.9444782029139192,1.439803279,1420,23.4,0.53
0.9498547338416695,1.411634248,1420,23.4,0.53
0.95523126476942,1.358785749,1420,23.4,0.53
0.9606077956971703,1.324536981,1420,23.4,0.53
0.9659843266249207,1.267546883,1420,23.4,0.53
0.971360857458328,1.2112919585,1420,23.4,0.53
0.9785295841676982,1.0930150570000001,1420,23.4,0.53
0.983906058772683,0.9937076839,1420,23.4,0.53
0.9892826460231989,0.8784488461,1420,23.4,0.53
0.9938804088625302,0.721967793,1420,23.4,0.53
0.995772080460019,0.7092165941,1420,23.4,0.53
0.9968922379073312,0.6547219719,1420,23.4,0.53
0.9977186913775707,0.6122730453,1420,23.4,0.53
0.9983668869737966,0.5804213459,1420,23.4,0.53
0.9988452031083621,0.5600654729,1420,23.4,0.53
0.999220275934052,0.5399569946,1420,23.4,0.53
0.9994971100635146,0.4981268836,1420,23.4,0.53
0.999714224890928,0.4182483061,1420,23.4,0.53
0.9998743759863754,0.24940299655,1420,23.4,0.53
1.0,0.05209349186,1420,23.4,0.53
