Normalized Coil Height [-],Air Velocity [m/s],CFM,angle,height
7.317492683291181e-05,-0.0102833697715,750,17,0.38
0.0002586907876972546,-0.039389773435,750,17,0.38
0.00044635311756899276,-0.06431532675,750,17,0.38
0.0007006907780100751,-0.09010020422000001,750,17,0.38
0.0011623136373568887,-0.121061392,750,17,0.38
0.0016292775419653237,-0.1390620996,750,17,0.38
0.0022621509691904715,-0.15066552295000002,750,17,0.38
0.0034108164644145776,-0.15912943355,750,17,0.38
0.00457277207311561,-0.1624207396,750,17,0.38
0.007108085563759493,-0.1664964948,750,17,0.38
0.01170609337515265,-0.1727302761,750,17,0.38
0.01672299036111424,-0.17682862625,750,17,0.38
0.0234121867503053,-0.18132446245,750,17,0.38
0.028429082515171716,-0.1846746507,750,17,0.38
0.03344598072222847,-0.18689252145000002,750,17,0.38
0.040135178340409715,-0.19011570215,750,17,0.38
0.045152076547466474,-0.1916594841,750,17,0.38
0.0501689723202279,-0.1939209852,750,17,0.38
0.05685816747779711,-0.19626833575000002,750,17,0.38
0.06187506568485387,-0.1980356143,750,17,0.38
0.06689196389191061,-0.20010620305,750,17,0.38
0.07190886209896738,-0.2003918551,750,17,0.38
0.07692575542427514,-0.20194376390000002,750,17,0.38
0.08361495058184436,-0.2069859899,750,17,0.38
0.08863185123635478,-0.2072175913,750,17,0.38
0.09364874699595785,-0.21022678685,750,17,0.38
0.10033793971923173,-0.21598230245,750,17,0.38
0.10535484037374218,-0.2167520477,750,17,0.38
0.11037173613334525,-0.22143892955,750,17,0.38
0.1170609337515265,-0.22801769389999998,750,17,0.38
0.12207782951112958,-0.2315914028,750,17,0.38
0.12709472527073265,-0.2365689328,750,17,0.38
0.13211162103033575,-0.2377422338,750,17,0.38
0.13712852169800452,-0.24349787035,750,17,0.38
0.14381771931618575,-0.24948690215,750,17,0.38
0.14883461016772315,-0.2496088377,750,17,0.38
0.15385151083539192,-0.25203010515,750,17,0.38
0.16054070845357316,-0.25616252845,750,17,0.38
0.16555760912124193,-0.2602014268,750,17,0.38
0.17057449506471362,-0.25729896975,750,17,0.38
0.17726370248586792,-0.2557263682,750,17,0.38
0.18228058844249792,-0.2499262309,750,17,0.38
0.18729749400507406,-0.24145518335,750,17,0.38
0.19231437996170406,-0.2293737634,750,17,0.38
0.19733128553743856,-0.21587004925,750,17,0.38
0.20402048314246143,-0.1918158261,750,17,0.38
0.2090373789152229,-0.1610764913,750,17,0.38
0.21405427466166763,-0.1312229232,750,17,0.38
0.22074347227984886,-0.0738362009,750,17,0.38
0.225760377842425,-0.0194713861,750,17,0.38
0.230777263799055,0.052453069835,750,17,0.38
0.23746646141723626,0.1412128076,750,17,0.38
0.242483357163681,0.2433706129,750,17,0.38
0.24750026273941547,0.35393179835,750,17,0.38
0.25251714870920383,0.4805181121,750,17,0.38
0.25753405425862164,0.6226523987,750,17,0.38
0.26422324203435477,0.7970048971,750,17,0.38
0.26924014771535604,0.9744578493,750,17,0.38
0.27425704339600904,1.1675237109999999,750,17,0.38
0.2809462410141903,1.411873929,750,17,0.38
0.2859631270892455,1.599468928,750,17,0.38
0.2909800325070797,1.788374846,750,17,0.38
0.2976692302568445,2.0411690335,750,17,0.38
0.30268612593749744,2.268763457,750,17,0.38
0.30770302161815044,2.4507801249999996,750,17,0.38
0.3127199172988034,2.590865828,750,17,0.38
0.3177368229798047,2.7779202005,750,17,0.38
0.3244260107292211,2.952862106,750,17,0.38
0.329442935884585,3.081825307,750,17,0.38
0.33445980235369405,3.125417166,750,17,0.38
0.34114900970905665,3.1575626235,750,17,0.38
0.3461659152584744,3.142941514,750,17,0.38
0.3511828209394757,3.084516197,750,17,0.38
0.3561996871454178,3.031995049,750,17,0.38
0.3612165928264191,2.9550172195,750,17,0.38
0.3679058001817816,2.8603865795,750,17,0.38
0.3729227057311994,2.782868345,750,17,0.38
0.3779395918062546,2.6981467439999998,750,17,0.38
0.384628779555671,2.598562391,750,17,0.38
0.3896456851050888,2.525365818,750,17,0.38
0.39466259065450654,2.459114456,750,17,0.38
0.40135177840392294,2.3721773895,750,17,0.38
0.4063686644789781,2.307182134,750,17,0.38
0.41138557002839593,2.2528543625,750,17,0.38
0.4164024755778137,2.200617798,750,17,0.38
0.4214193811272315,2.147921293,750,17,0.38
0.42810854927070185,2.088541429,750,17,0.38
0.4331254549517031,2.047183698,750,17,0.38
0.43814236050112093,2.017156316,750,17,0.38
0.4448315678564835,1.965775493,750,17,0.38
0.4498484343255925,1.937395616,750,17,0.38
0.45486533974342674,1.9076105970000001,750,17,0.38
0.4615545472303728,1.8702520974999999,750,17,0.38
0.4665714526482071,1.845234522,750,17,0.38
0.47158833872326233,1.8267657275,750,17,0.38
0.4766052247983175,1.801228051,750,17,0.38
0.4816221302161518,1.7862003355,750,17,0.38
0.48831133770309787,1.7613209854999998,750,17,0.38
0.4933282431209321,1.742365285,750,17,0.38
0.49834510959004114,1.7255174655,750,17,0.38
0.5050343170769872,1.7089609835,750,17,0.38
0.5100512224948215,1.692157958,750,17,0.38
0.5150681281758228,1.6812715245,750,17,0.38
0.521757296319293,1.665743666,750,17,0.38
0.5267742018687108,1.653445976,750,17,0.38
0.5317911074181286,1.6419907,750,17,0.38
0.5368080129675464,1.633975314,750,17,0.38
0.5418248990426016,1.624140336,750,17,0.38
0.5485140867920181,1.6112785889999999,750,17,0.38
0.5535309923414359,1.602863194,750,17,0.38
0.5585478978908537,1.594167327,750,17,0.38
0.5652370857718536,1.585318601,750,17,0.38
0.5702539717153252,1.577958501,750,17,0.38
0.575270877264743,1.5706893825,750,17,0.38
0.5819600846201055,1.562179082,750,17,0.38
0.5869769903011068,1.555854248,750,17,0.38
0.5919938565070489,1.5499796825,750,17,0.38
0.5970107621880502,1.544282008,750,17,0.38
0.6020276677374681,1.5387609494999999,750,17,0.38
0.6087168750928306,1.533255768,750,17,0.38
0.6137337415619396,1.528253659,750,17,0.38
0.6187506469797739,1.5238380390000001,750,17,0.38
0.6254398544667199,1.5180302724999999,750,17,0.38
0.6304567601477212,1.514621884,750,17,0.38
0.6354736459596094,1.5106971585000002,750,17,0.38
0.6421628338406093,1.5061950195,750,17,0.38
0.6471797392584435,1.502625399,750,17,0.38
0.6521966449394448,1.499610619,750,17,0.38
0.657213511145387,1.497194491,750,17,0.38
0.6622304364323345,1.4942209124999999,750,17,0.38
0.6689196439192805,1.4908626164999998,750,17,0.38
0.6739365689430609,1.488191385,750,17,0.38
0.6789534158062237,1.4857023295,750,17,0.38
0.6856426231615862,1.483271921,750,17,0.38
0.6906595483169502,1.480775201,750,17,0.38
0.6956764343920054,1.4786770775,750,17,0.38
0.7006933202038935,1.475612723,750,17,0.38
0.7057102062789486,1.4743949715,750,17,0.38
0.7123994136343111,1.4706566595,750,17,0.38
0.7174162995777829,1.468768442,750,17,0.38
0.7224332248647304,1.4667045745,750,17,0.38
0.7291223930082007,1.4640092070000001,750,17,0.38
0.7341392789516723,1.460607481,750,17,0.38
0.7391562041070361,1.4589314395000001,750,17,0.38
0.7458454114623986,1.453915368,750,17,0.38
0.7508622583255617,1.451751193,750,17,0.38
0.7558791834809256,1.4489165045,750,17,0.38
0.7608961086362894,1.445563816,750,17,0.38
0.7659129945797611,1.4401162665,750,17,0.38
0.7726021627232316,1.4353157175,750,17,0.38
0.777619088010179,1.42732413,750,17,0.38
0.7826359739536506,1.422649141,750,17,0.38
0.7893251813090131,1.413772002,750,17,0.38
0.7943420673840683,1.406225224,750,17,0.38
0.7993589531959565,1.3936083479999999,750,17,0.38
0.8060481606829026,1.380516627,750,17,0.38
0.8110650464947906,1.366453911,750,17,0.38
0.816081971781738,1.351243711,750,17,0.38
0.8210988186449011,1.336724742,750,17,0.38
0.8261157436686815,1.3180310985,750,17,0.38
0.8328049511556276,1.2985339200000001,750,17,0.38
0.8378218761794078,1.278845864,750,17,0.38
0.8428387230425707,1.255861847,750,17,0.38
0.8495279305295168,1.229243281,750,17,0.38
0.8545448555532972,1.21201234,750,17,0.38
0.8595617416283525,1.1899893595,750,17,0.38
0.8662509097718227,1.150526609,750,17,0.38
0.8712678349271866,1.129454341,750,17,0.38
0.8762847208706583,1.118471835,750,17,0.38
0.8813016068141301,1.093059245,750,17,0.38
0.8863185321010775,1.068366417,750,17,0.38
0.8930077002445477,1.038451844,750,17,0.38
0.8980245861880194,1.01885348,750,17,0.38
0.9030415113433834,0.9930893405,750,17,0.38
0.9097307188303293,0.96872577845,750,17,0.38
0.9147475655619088,0.9330186275,750,17,0.38
0.9197644907172726,0.9185307653,750,17,0.38
0.9264536980726352,0.8839657796,750,17,0.38
0.9314706233595828,0.8433304761,750,17,0.38
0.9364874699595787,0.80354504445,750,17,0.38
0.941504395246526,0.7890222798,750,17,0.38
0.9465212811899976,0.7380291198,750,17,0.38
0.9532104885453602,0.6638934905,750,17,0.38
0.9582273746204154,0.609447857,750,17,0.38
0.9632442604323036,0.5411579546,750,17,0.38
0.9699334679192496,0.45385238415,750,17,0.38
0.9749503539943047,0.3900360717,750,17,0.38
0.979967279018085,0.29364051795,750,17,0.38
0.9866564472931388,0.1759997794,750,17,0.38
0.991673333105027,0.07066576483,750,17,0.38
0.9948211170977026,-0.04106331524,750,17,0.38
0.9962822660219877,-0.0105830792,750,17,0.38
0.9972505615939048,0.00546532060055,750,17,0.38
0.998207798491128,0.02005758136,750,17,0.38
0.9987351609403299,0.01800963552,750,17,0.38
0.9991242910743183,0.0043857660275,750,17,0.38
0.9995089896065669,-0.01145094131,750,17,0.38
0.9997209463320175,-0.01466982451,750,17,0.38
0.9998773355955033,-0.010352291150500001,750,17,0.38
1.0,-0.003147473219,750,17,0.38
