Normalized Coil Height [-],Air Velocity [m/s],CFM,angle,height
8.086521710696392e-05,-0.020939868567000003,1420,13.6,0.63
0.00022488231990671538,-0.06091215187,1420,13.6,0.63
0.00042006783864851623,-0.10218911778,1420,13.6,0.63
0.0006689293911194546,-0.1402743855,1420,13.6,0.63
0.0008797297618369703,-0.1611793638,1420,13.6,0.63
0.0012844664558905926,-0.1837715704,1420,13.6,0.63
0.0018005057188429864,-0.1979907284,1420,13.6,0.63
0.002499890811433433,-0.203840034,1420,13.6,0.63
0.0033916066753274573,-0.2069437481,1420,13.6,0.63
0.004146942756345938,-0.2083425092,1420,13.6,0.63
0.005803969006847473,-0.21026620045,1420,13.6,0.63
0.009451795910006042,-0.2131028404,1420,13.6,0.63
0.015122873633136328,-0.21801089810000002,1420,13.6,0.63
0.020793951354376252,-0.2201876744,1420,13.6,0.63
0.024574670426885305,-0.2212897096,1420,13.6,0.63
0.030245747268163013,-0.21966614665,1420,13.6,0.63
0.03591682410944072,-0.2198454528,1420,13.6,0.63
0.041587902708752504,-0.2218259206,1420,13.6,0.63
0.04725898130806429,-0.2182790877,1420,13.6,0.63
0.051039700380573344,-0.2186399157,1420,13.6,0.63
0.05671077723130285,-0.21829759325,1420,13.6,0.63
0.06238185406312876,-0.2175713295,1420,13.6,0.63
0.06805293267189234,-0.21579576155,1420,13.6,0.63
0.07372401126175232,-0.2119273,1420,13.6,0.63
0.07750473033426138,-0.2120878877,1420,13.6,0.63
0.08317580894302497,-0.21214421239999998,1420,13.6,0.63
0.08884688050074864,-0.2116231353,1420,13.6,0.63
0.09451795910951222,-0.21144491370000001,1420,13.6,0.63
0.10018903769937221,-0.2092477841,1420,13.6,0.63
0.10396975677188126,-0.2116165632,1420,13.6,0.63
0.10964083538064484,-0.2137119272,1420,13.6,0.63
0.11531191398940842,-0.2155068729,1420,13.6,0.63
0.12098298906320025,-0.21678919079999998,1420,13.6,0.63
0.12665407118803199,-0.2159175397,1420,13.6,0.63
0.13043478320950114,-0.2196598634,1420,13.6,0.63
0.13610585829274477,-0.22300269090000002,1420,13.6,0.63
0.1417769333759884,-0.2257601525,1420,13.6,0.63
0.14744801550082015,-0.22821120825000002,1420,13.6,0.63
0.15311909762565187,-0.2269236867,1420,13.6,0.63
0.15689980964712102,-0.231088202,1420,13.6,0.63
0.16257089177195275,-0.23433102075,1420,13.6,0.63
0.1682419738967845,-0.2365741406,1420,13.6,0.63
0.17202268591825365,-0.2390174344,1420,13.6,0.63
0.17769376100149728,-0.2373404644,1420,13.6,0.63
0.18336483608474088,-0.2375722037,1420,13.6,0.63
0.18903591823792804,-0.23767116430000002,1420,13.6,0.63
0.1947070002965972,-0.2386226317,1420,13.6,0.63
0.19848771231806633,-0.2353812595,1420,13.6,0.63
0.20415879452796423,-0.23178530484999998,1420,13.6,0.63
0.20982987654882623,-0.2268142041,1420,13.6,0.63
0.21550094458102995,-0.21862534579999998,1420,13.6,0.63
0.22117202679092784,-0.2071732612,1420,13.6,0.63
0.224952738812397,-0.1980340729,1420,13.6,0.63
0.23062382083325897,-0.1841153632,1420,13.6,0.63
0.23629490304315687,-0.1626103561,1420,13.6,0.63
0.2419659781642077,-0.1391190152,1420,13.6,0.63
0.2476370532852585,-0.1135420246,1420,13.6,0.63
0.25141777929538595,-0.08914784832,1420,13.6,0.63
0.25708885441643675,-0.054873043144999994,1420,13.6,0.63
0.26275992953748756,-0.007374361043,1420,13.6,0.63
0.2684310045640204,0.046354771185000004,1420,13.6,0.63
0.27410207959055327,0.1071407382,1420,13.6,0.63
0.2778828057897166,0.1572291376,1420,13.6,0.63
0.28355388081624944,0.2228369305,1420,13.6,0.63
0.2892249558427823,0.329701297,1420,13.6,0.63
0.2948960450470093,0.43638438265,1420,13.6,0.63
0.3005671060848839,0.5551828369,1420,13.6,0.63
0.3043478322840472,0.6478154458,1420,13.6,0.63
0.31001890731058007,0.757338324,1420,13.6,0.63
0.31568998233711293,0.9405624241,1420,13.6,0.63
0.32136107154133997,1.1226836869999999,1420,13.6,0.63
0.32703213257921454,1.301825109,1420,13.6,0.63
0.33081285858934195,1.444612538,1420,13.6,0.63
0.336483947793569,1.5971603079999999,1420,13.6,0.63
0.34215500883144356,1.847795955,1420,13.6,0.63
0.34782609794115266,2.1048783185,1420,13.6,0.63
0.3534971588845093,2.325789599,1420,13.6,0.63
0.3572778850836726,2.507329159,1420,13.6,0.63
0.3629489741933817,2.6584231575,1420,13.6,0.63
0.3686200351367383,2.885754124,1420,13.6,0.63
0.37240076133590166,3.043622767,1420,13.6,0.63
0.3780718505401287,3.210447427,1420,13.6,0.63
0.3837429115780033,3.350336579,1420,13.6,0.63
0.38941400068771237,3.3908892925,1420,13.6,0.63
0.395085061631069,3.450413758,1420,13.6,0.63
0.3988657878302323,3.461395892,1420,13.6,0.63
0.40453687693994134,3.4448737940000003,1420,13.6,0.63
0.410207937883298,3.404683901,1420,13.6,0.63
0.41587902708752505,3.3091748975,1420,13.6,0.63
0.42155011629175204,3.224698183,1420,13.6,0.63
0.42533081413552704,3.161827974,1420,13.6,0.63
0.4310019033397541,3.07220487,1420,13.6,0.63
0.4366729643776287,2.990875052,1420,13.6,0.63
0.4423440535818557,2.8979821015000002,1420,13.6,0.63
0.44801514278608273,2.807736779,1420,13.6,0.63
0.45179584062985767,2.746293472,1420,13.6,0.63
0.4574669298340847,2.6683589325,1420,13.6,0.63
0.46313801903831175,2.588096524,1420,13.6,0.63
0.4688090799816684,2.5193005609999997,1420,13.6,0.63
0.47448019725772994,2.457320539,1420,13.6,0.63
0.47826086712418836,2.41891383,1420,13.6,0.63
0.4839319562338974,2.360302645,1420,13.6,0.63
0.4896030453436065,2.305083997,1420,13.6,0.63
0.49527413454783353,2.2620983035,1420,13.6,0.63
0.5009452237520606,2.219231775,1420,13.6,0.63
0.504725893429483,2.191290332,1420,13.6,0.63
0.5103969827282281,2.150812468,1420,13.6,0.63
0.5160680718379371,2.111429725,1420,13.6,0.63
0.5217391610421642,2.0859164915,1420,13.6,0.63
0.5274102502463913,2.047788357,1420,13.6,0.63
0.5311909199238137,2.037050929,1420,13.6,0.63
0.5368620091280408,2.0073033025,1420,13.6,0.63
0.5425330983322678,1.986444991,1420,13.6,0.63
0.548204187441977,1.96395287,1420,13.6,0.63
0.553875276551686,1.943058011,1420,13.6,0.63
0.5576560027508493,1.930285906,1420,13.6,0.63
0.5633270355278535,1.913448073,1420,13.6,0.63
0.5689981246375626,1.89789032,1420,13.6,0.63
0.5746692139363075,1.8817186860000001,1420,13.6,0.63
0.5803403030460166,1.8661812,1420,13.6,0.63
0.58412102924518,1.857293732,1420,13.6,0.63
0.5897920620221841,1.845391764,1420,13.6,0.63
0.5954631511318933,1.832577206,1420,13.6,0.63
0.5992438773310564,1.827381386,1420,13.6,0.63
0.6049149664407656,1.814166575,1420,13.6,0.63
0.6105860555504746,1.804954021,1420,13.6,0.63
0.6162570884219969,1.7961076120000001,1420,13.6,0.63
0.6219281776262238,1.786713682,1420,13.6,0.63
0.6257089036363512,1.782773869,1420,13.6,0.63
0.6313799928405782,1.774216045,1420,13.6,0.63
0.6370510820448053,1.766902943,1420,13.6,0.63
0.6427221430826799,1.7603584159999999,1420,13.6,0.63
0.6483932041205545,1.753547749,1420,13.6,0.63
0.6521739301306819,1.750495533,1420,13.6,0.63
0.6578450193349089,1.744353066,1420,13.6,0.63
0.663516108539136,1.738588427,1420,13.6,0.63
0.6691871694824926,1.7340617090000001,1420,13.6,0.63
0.6748582304258492,1.729218306,1420,13.6,0.63
0.6786389566250126,1.727261154,1420,13.6,0.63
0.6843100457347217,1.7224471945,1420,13.6,0.63
0.6899811348444307,1.718877545,1420,13.6,0.63
0.6956521958823053,1.715269017,1420,13.6,0.63
0.7013232569201799,1.712046915,1420,13.6,0.63
0.7051039829303073,1.710675763,1420,13.6,0.63
0.7107750722290523,1.7077425105000001,1420,13.6,0.63
0.7164461613387614,1.704262822,1420,13.6,0.63
0.7221172505429885,1.7024811655,1420,13.6,0.63
0.7277882834145105,1.700287706,1420,13.6,0.63
0.731569009424638,1.699429639,1420,13.6,0.63
0.737240098628865,1.697345713,1420,13.6,0.63
0.7429111878330921,1.696106566,1420,13.6,0.63
0.7485822769428011,1.694051581,1420,13.6,0.63
0.7542533097198053,1.692953738,1420,13.6,0.63
0.7580340359189687,1.692621494,1420,13.6,0.63
0.7637051250286777,1.6911229995000001,1420,13.6,0.63
0.7693762141383867,1.690571516,1420,13.6,0.63
0.7750473034371317,1.6898522384999999,1420,13.6,0.63
0.780718336214136,1.688993098,1420,13.6,0.63
0.7844990624132994,1.688691027,1420,13.6,0.63
0.7901701515230084,1.6883408169999998,1420,13.6,0.63
0.7958412406327174,1.687540061,1420,13.6,0.63
0.7996219668318807,1.686819234,1420,13.6,0.63
0.8052930559415898,1.686056871,1420,13.6,0.63
0.810964088718594,1.686067078,1420,13.6,0.63
0.8166351779228211,1.686957292,1420,13.6,0.63
0.822306267127048,1.685803988,1420,13.6,0.63
0.8260869931371755,1.686186116,1420,13.6,0.63
0.8317580823414025,1.686287626,1420,13.6,0.63
0.8374291152129247,1.686365011,1420,13.6,0.63
0.8431002043226337,1.686768286,1420,13.6,0.63
0.8487712936213787,1.686764556,1420,13.6,0.63
0.8525520196315061,1.686006654,1420,13.6,0.63
0.8582231088357332,1.6863648905,1420,13.6,0.63
0.8638941417072553,1.685119431,1420,13.6,0.63
0.8695652308169644,1.688078457,1420,13.6,0.63
0.8752363199266734,1.686139213,1420,13.6,0.63
0.8790170461258368,1.687526938,1420,13.6,0.63
0.8846881352355459,1.688240354,1420,13.6,0.63
0.8903592243452549,1.686043944,1420,13.6,0.63
0.8960302572167771,1.6886889385,1420,13.6,0.63
0.9017013464210041,1.686288121,1420,13.6,0.63
0.9054820724311315,1.68874085,1420,13.6,0.63
0.9111531617298765,1.6899319385,1420,13.6,0.63
0.9168242508395856,1.689441412,1420,13.6,0.63
0.9224952837111078,1.6877286665,1420,13.6,0.63
0.9281663729153348,1.684017871,1420,13.6,0.63
0.9319470989254622,1.688175217,1420,13.6,0.63
0.9376181881296892,1.6898132860000001,1420,13.6,0.63
0.9432892773339163,1.683934414,1420,13.6,0.63
0.9489603382772729,1.687030312,1420,13.6,0.63
0.9546313992206297,1.685152802,1420,13.6,0.63
0.9584121817524976,1.682111579,1420,13.6,0.63
0.9640832426958542,1.676729098,1420,13.6,0.63
0.9697543036392109,1.668803354,1420,13.6,0.63
0.9754253647716036,1.6750178525,1420,13.6,0.63
0.98109642571496,1.669072583,1420,13.6,0.63
0.9848772082468283,1.661896908,1420,13.6,0.63
0.9905482691901851,1.651355751,1420,13.6,0.63
0.9962193301335416,1.646243631,1420,13.6,0.63
1.0,1.642710188,1420,13.6,0.63
