Normalized Coil Height [-],Air Velocity [m/s],CFM,angle,height
7.495012749763711e-05,-0.0196518974975,1480,23.4,0.53
0.0002649665458328995,-0.071518257125,1480,23.4,0.53
0.00045718148864615866,-0.1117665097,1480,23.4,0.53
0.0007176892920750579,-0.14823451155,1480,23.4,0.53
0.0010498367001411844,-0.1779012025,1480,23.4,0.53
0.0014999941953587868,-0.19602599685,1480,23.4,0.53
0.002073944914871335,-0.2090454019,1480,23.4,0.53
0.0028518171467762517,-0.2171255145,1480,23.4,0.53
0.003843604020135762,-0.2233055995,1480,23.4,0.53
0.005419517388968692,-0.22896600755000002,1480,23.4,0.53
0.00896089336730841,-0.2357017016,1480,23.4,0.53
0.01433742956317142,-0.24715650174999998,1480,23.4,0.53
0.019713966628876808,-0.2534495372,1480,23.4,0.53
0.025090501953010578,-0.26056594875,1480,23.4,0.53
0.032259217180838635,-0.2667361292,1480,23.4,0.53
0.03763575160871399,-0.2725875947,1480,23.4,0.53
0.04301228956501721,-0.28242515285,1480,23.4,0.53
0.04838882401176117,-0.2816764195,1480,23.4,0.53
0.05376536195863009,-0.2992907769,1480,23.4,0.53
0.05914189639593975,-0.3011270715,1480,23.4,0.53
0.0645184308426837,-0.31394771779999997,1480,23.4,0.53
0.06989496527055905,-0.3266238087,1480,23.4,0.53
0.07527150674585585,-0.334069114,1480,23.4,0.53
0.0806480411831655,-0.3453950606,1480,23.4,0.53
0.08602457562047515,-0.3300743304,1480,23.4,0.53
0.09140111005778481,-0.3151397793,1480,23.4,0.53
0.09677764801408804,-0.28973371665000003,1480,23.4,0.53
0.10215418597039126,-0.2426877592,1480,23.4,0.53
0.10753072040770092,-0.18140879529999998,1480,23.4,0.53
0.11469943299392522,-0.067713069095,1480,23.4,0.53
0.12007597445978771,0.03841884183,1480,23.4,0.53
0.1254525053781038,0.17267238775,1480,23.4,0.53
0.1308290363152885,0.377131384,1480,23.4,0.53
0.1362055742621574,0.65589334975,1480,23.4,0.53
0.14158211220902633,0.9963380255,1480,23.4,0.53
0.14695865017476387,1.4700072825000001,1480,23.4,0.53
0.15233518812163277,1.906051305,1480,23.4,0.53
0.15771171903994888,2.6698068084999997,1480,23.4,0.53
0.16308826403423923,3.277960358,1480,23.4,0.53
0.16846479495255534,3.5994362745,1480,23.4,0.53
0.1738413258708714,3.788376953,1480,23.4,0.53
0.17921786383660893,3.7908731355,1480,23.4,0.53
0.18638658344195178,3.713274662,1480,23.4,0.53
0.19176311432253068,3.54745622,1480,23.4,0.53
0.19713965232600536,3.3855892905,1480,23.4,0.53
0.2025161903294801,3.260359045,1480,23.4,0.53
0.20789272125723046,3.0985797535,1480,23.4,0.53
0.21326926614774355,2.965591561,1480,23.4,0.53
0.21864579707549392,2.837377169,1480,23.4,0.53
0.22402232800324431,2.723793374,1480,23.4,0.53
0.22939886591237604,2.6292308335000003,1480,23.4,0.53
0.23477540401019376,2.556025905,1480,23.4,0.53
0.24015194890070682,2.4791255395,1480,23.4,0.53
0.24552847982845724,2.428613611,1480,23.4,0.53
0.2509050248133132,2.361650156,1480,23.4,0.53
0.256281541683958,2.322970822,1480,23.4,0.53
0.261658086668814,2.2759596225000003,1480,23.4,0.53
0.2688268132838411,2.2229494494999997,1480,23.4,0.53
0.2742033302488288,2.185956997,1480,23.4,0.53
0.2795798751393419,2.155066669,1480,23.4,0.53
0.28495642021854095,2.12854568,1480,23.4,0.53
0.29033295105194834,2.1006495275,1480,23.4,0.53
0.29570948207404174,2.08162231,1480,23.4,0.53
0.3010860269645548,2.057905027,1480,23.4,0.53
0.3064625720437539,2.042395816,1480,23.4,0.53
0.31183908882005557,2.022757929,1480,23.4,0.53
0.3172156338992546,2.004468261,1480,23.4,0.53
0.322592164732662,1.98654312,1480,23.4,0.53
0.32796869556606945,1.972166891,1480,23.4,0.53
0.33334524064526844,1.9597359595000001,1480,23.4,0.53
0.3387217855357815,1.946756894,1480,23.4,0.53
0.3440983025007692,1.9351012935,1480,23.4,0.53
0.3512670291157963,1.9183639554999998,1480,23.4,0.53
0.3566435741006524,1.911882619,1480,23.4,0.53
0.36202009097129706,1.900591587,1480,23.4,0.53
0.36739663595615313,1.890751689,1480,23.4,0.53
0.37277316688390355,1.8820385725,1480,23.4,0.53
0.3781496978116539,1.873638988,1480,23.4,0.53
0.38352624279651,1.866702274,1480,23.4,0.53
0.38890278778136605,1.859347175,1480,23.4,0.53
0.3942793046520107,1.8526927105,1480,23.4,0.53
0.3996558496368668,1.845622206,1480,23.4,0.53
0.40503239462172286,1.8404592850000001,1480,23.4,0.53
0.4104089114923676,1.8354558,1480,23.4,0.53
0.41578545647722365,1.829309958,1480,23.4,0.53
0.42295418309225075,1.8229853184999998,1480,23.4,0.53
0.42833070005723844,1.819206826,1480,23.4,0.53
0.43370724494775154,1.8136168105000001,1480,23.4,0.53
0.43908378983826457,1.809814365,1480,23.4,0.53
0.44446030680325227,1.8059949535,1480,23.4,0.53
0.44983685169376536,1.801553984,1480,23.4,0.53
0.4552133967729644,1.7980278245,1480,23.4,0.53
0.4605899135492661,1.795231038,1480,23.4,0.53
0.46596645862846514,1.7916855675,1480,23.4,0.53
0.47134300351897823,1.788296621,1480,23.4,0.53
0.47671953454107163,1.7853133565000001,1480,23.4,0.53
0.4820960372602676,1.782645266,1480,23.4,0.53
0.48747259639657237,1.7798714575,1480,23.4,0.53
0.49284909911576846,1.777093526,1480,23.4,0.53
0.4982256582520732,1.775099744,1480,23.4,0.53
0.5053943848671002,1.772200123,1480,23.4,0.53
0.5107708876806393,1.77039227,1480,23.4,0.53
0.516147446722601,1.7684078475,1480,23.4,0.53
0.5215240057645628,1.766435177,1480,23.4,0.53
0.5269005085781018,1.7643114115,1480,23.4,0.53
0.5322770676200635,1.762655389,1480,23.4,0.53
0.5376535985478139,1.7613417845,1480,23.4,0.53
0.5430301294755643,1.759427915,1480,23.4,0.53
0.5484066603089717,1.758248435,1480,23.4,0.53
0.553783191331065,1.757125613,1480,23.4,0.53
0.5591597502786838,1.755612439,1480,23.4,0.53
0.5645362531865658,1.754460679,1480,23.4,0.53
0.5699128121341845,1.7533097085,1480,23.4,0.53
0.5752893712704893,1.752121738,1480,23.4,0.53
0.5806658739896853,1.7511739665000001,1480,23.4,0.53
0.5878346006990555,1.749845952,1480,23.4,0.53
0.5932111596466741,1.748737282,1480,23.4,0.53
0.5985876625545562,1.7481177940000001,1480,23.4,0.53
0.603964221502175,1.745130604,1480,23.4,0.53
0.6093407525242682,1.74603713,1480,23.4,0.53
0.6147172833576757,1.744931081,1480,23.4,0.53
0.6200938143797691,1.7457553435,1480,23.4,0.53
0.6254703452131765,1.745013798,1480,23.4,0.53
0.6308468762352699,1.7438987890000002,1480,23.4,0.53
0.6362234070686772,1.743449065,1480,23.4,0.53
0.6415999662049819,1.741639174,1480,23.4,0.53
0.646976468924178,1.740944912,1480,23.4,0.53
0.6523530279661398,1.740538334,1480,23.4,0.53
0.6595217545811669,1.7407675395,1480,23.4,0.53
0.6648982574890488,1.739513703,1480,23.4,0.53
0.6702748164366676,1.740783346,1480,23.4,0.53
0.6756513755729724,1.740107762,1480,23.4,0.53
0.6810278782921684,1.7398578095000001,1480,23.4,0.53
0.6864044374284731,1.739306647,1480,23.4,0.53
0.6917809682618805,1.7380918475,1480,23.4,0.53
0.6971574992839739,1.737092677,1480,23.4,0.53
0.7025340301173812,1.736928363,1480,23.4,0.53
0.7079105611394747,1.735595338,1480,23.4,0.53
0.7132871200870934,1.736794398,1480,23.4,0.53
0.7186636229949754,1.735402417,1480,23.4,0.53
0.7240401819425941,1.736147625,1480,23.4,0.53
0.7294167410788989,1.735344219,1480,23.4,0.53
0.734793243798095,1.7331313255,1480,23.4,0.53
0.741961970507465,1.734712486,1480,23.4,0.53
0.747338473226661,1.734212709,1480,23.4,0.53
0.7527150323629658,1.732782307,1480,23.4,0.53
0.7580915913105846,1.73101847,1480,23.4,0.53
0.7634680941241235,1.7316316935,1480,23.4,0.53
0.7688446531660853,1.731026226,1480,23.4,0.53
0.7742211840938356,1.727630354,1480,23.4,0.53
0.779597715021586,1.731546476,1480,23.4,0.53
0.7849742459493366,1.729050155,1480,23.4,0.53
0.7903507768770869,1.728117633,1480,23.4,0.53
0.7957273359190485,1.720619841,1480,23.4,0.53
0.8011038387325876,1.726683698,1480,23.4,0.53
0.8064803977745494,1.7233693799999998,1480,23.4,0.53
0.8118569568165112,1.722528104,1480,23.4,0.53
0.8172334596300502,1.7210506555,1480,23.4,0.53
0.8244021862450772,1.718423927,1480,23.4,0.53
0.829778745381382,1.715204246,1480,23.4,0.53
0.835155248100578,1.710615255,1480,23.4,0.53
0.8405318072368827,1.712443992,1480,23.4,0.53
0.8459083380702901,1.708095425,1480,23.4,0.53
0.8512848690923835,1.70578369,1480,23.4,0.53
0.8566613999257909,1.6985137505,1480,23.4,0.53
0.8620379309478843,1.696360511,1480,23.4,0.53
0.8674144617812917,1.6934640755,1480,23.4,0.53
0.8727909926146991,1.68841002,1480,23.4,0.53
0.8781675517510038,1.6821266795,1480,23.4,0.53
0.8835440544701998,1.67771855,1480,23.4,0.53
0.8889206136065045,1.6671176045,1480,23.4,0.53
0.8960893402215315,1.659395214,1480,23.4,0.53
0.9014658430350707,1.650361617,1480,23.4,0.53
0.9068424020770324,1.6367051405,1480,23.4,0.53
0.9122189611189941,1.629402929,1480,23.4,0.53
0.9175954639325332,1.6008775124999999,1480,23.4,0.53
0.922972022974495,1.590354229,1480,23.4,0.53
0.9283485539022452,1.577241125,1480,23.4,0.53
0.9337250848299957,1.56065944,1480,23.4,0.53
0.939101615757746,1.5213590955,1480,23.4,0.53
0.9444782029139192,1.504391883,1480,23.4,0.53
0.9498547338416695,1.475174761,1480,23.4,0.53
0.95523126476942,1.420068689,1480,23.4,0.53
0.9606077956971703,1.384497408,1480,23.4,0.53
0.9659843266249207,1.324902003,1480,23.4,0.53
0.971360857458328,1.266000895,1480,23.4,0.53
0.9785295841676982,1.1413449254999999,1480,23.4,0.53
0.983906058772683,1.036680944,1480,23.4,0.53
0.9892826460231989,0.9164000934500001,1480,23.4,0.53
0.9938804088625302,0.7527802422,1480,23.4,0.53
0.995772080460019,0.73920097485,1480,23.4,0.53
0.9968922379073312,0.6821952598,1480,23.4,0.53
0.9977186913775707,0.6377320872,1480,23.4,0.53
0.9983668869737966,0.6042005298,1480,23.4,0.53
0.9988452031083621,0.58272217555,1480,23.4,0.53
0.999220275934052,0.5619975664,1480,23.4,0.53
0.9994971100635146,0.5194565981,1480,23.4,0.53
0.999714224890928,0.437402646,1480,23.4,0.53
0.9998743759863754,0.26187517635,1480,23.4,0.53
1.0,0.05485932508,1480,23.4,0.53
