Normalized Coil Height [-],Air Velocity [m/s],CFM,angle,height
7.317492683291181e-05,-0.007777624290499999,590,17,0.38
0.0002586907876972546,-0.029812002065000003,590,17,0.38
0.00044635311756899276,-0.04870925038,590,17,0.38
0.0007006907780100751,-0.068305323995,590,17,0.38
0.0011623136373568887,-0.091952117125,590,17,0.38
0.0016292775419653237,-0.1058184071,590,17,0.38
0.0022621509691904715,-0.1148708606,590,17,0.38
0.0034108164644145776,-0.121589563,590,17,0.38
0.00457277207311561,-0.124154925,590,17,0.38
0.007108085563759493,-0.1276622558,590,17,0.38
0.01170609337515265,-0.1323841531,590,17,0.38
0.01672299036111424,-0.1356196125,590,17,0.38
0.0234121867503053,-0.13930029405,590,17,0.38
0.028429082515171716,-0.1426797345,590,17,0.38
0.03344598072222847,-0.1451475591,590,17,0.38
0.040135178340409715,-0.14868588659999998,590,17,0.38
0.045152076547466474,-0.1504189345,590,17,0.38
0.0501689723202279,-0.15296406935,590,17,0.38
0.05685816747779711,-0.1556671476,590,17,0.38
0.06187506568485387,-0.1577758628,590,17,0.38
0.06689196389191061,-0.1602734266,590,17,0.38
0.07190886209896738,-0.1607370229,590,17,0.38
0.07692575542427514,-0.16247798915,590,17,0.38
0.08361495058184436,-0.1680842517,590,17,0.38
0.08863185123635478,-0.1683296136,590,17,0.38
0.09364874699595785,-0.17150573695,590,17,0.38
0.10033793971923173,-0.1776133754,590,17,0.38
0.10535484037374218,-0.1781848606,590,17,0.38
0.11037173613334525,-0.18273467915,590,17,0.38
0.1170609337515265,-0.18895310195,590,17,0.38
0.12207782951112958,-0.1919781507,590,17,0.38
0.12709472527073265,-0.196353765,590,17,0.38
0.13211162103033575,-0.196485323,590,17,0.38
0.13712852169800452,-0.20112927605,590,17,0.38
0.14381771931618575,-0.2050085942,590,17,0.38
0.14883461016772315,-0.2028094565,590,17,0.38
0.15385151083539192,-0.2023709709,590,17,0.38
0.16054070845357316,-0.20160277035,590,17,0.38
0.16555760912124193,-0.201177585,590,17,0.38
0.17057449506471362,-0.1941521736,590,17,0.38
0.17726370248586792,-0.18291567495,590,17,0.38
0.18228058844249792,-0.1700093386,590,17,0.38
0.18729749400507406,-0.15252913525,590,17,0.38
0.19231437996170406,-0.1295531658,590,17,0.38
0.19733128553743856,-0.101605609835,590,17,0.38
0.20402048314246143,-0.063369087835,590,17,0.38
0.2090373789152229,-0.006489990555,590,17,0.38
0.21405427466166763,0.033559922219999996,590,17,0.38
0.22074347227984886,0.11425723335999999,590,17,0.38
0.225760377842425,0.1897892036,590,17,0.38
0.230777263799055,0.285848983,590,17,0.38
0.23746646141723626,0.39641451969999997,590,17,0.38
0.242483357163681,0.5176806355,590,17,0.38
0.24750026273941547,0.6410224903999999,590,17,0.38
0.25251714870920383,0.7742324071,590,17,0.38
0.25753405425862164,0.9213169129000001,590,17,0.38
0.26422324203435477,1.0882994529999999,590,17,0.38
0.26924014771535604,1.253052621,590,17,0.38
0.27425704339600904,1.424826439,590,17,0.38
0.2809462410141903,1.630365357,590,17,0.38
0.2859631270892455,1.776536386,590,17,0.38
0.2909800325070797,1.9157858425,590,17,0.38
0.2976692302568445,2.091351379,590,17,0.38
0.30268612593749744,2.238400617,590,17,0.38
0.30770302161815044,2.3227312115,590,17,0.38
0.3127199172988034,2.377690385,590,17,0.38
0.3177368229798047,2.4235535959999996,590,17,0.38
0.3244260107292211,2.4342473635,590,17,0.38
0.329442935884585,2.427421659,590,17,0.38
0.33445980235369405,2.3729970795,590,17,0.38
0.34114900970905665,2.3091152514999997,590,17,0.38
0.3461659152584744,2.262724948,590,17,0.38
0.3511828209394757,2.1903255205,590,17,0.38
0.3561996871454178,2.131273065,590,17,0.38
0.3612165928264191,2.069277644,590,17,0.38
0.3679058001817816,2.000096138,590,17,0.38
0.3729227057311994,1.947766142,590,17,0.38
0.3779395918062546,1.8911991540000002,590,17,0.38
0.384628779555671,1.8266869675000001,590,17,0.38
0.3896456851050888,1.78077468,590,17,0.38
0.39466259065450654,1.7406018735000002,590,17,0.38
0.40135177840392294,1.6875985115,590,17,0.38
0.4063686644789781,1.648833158,590,17,0.38
0.41138557002839593,1.615825249,590,17,0.38
0.4164024755778137,1.583337571,590,17,0.38
0.4214193811272315,1.5512199945,590,17,0.38
0.42810854927070185,1.5145760735,590,17,0.38
0.4331254549517031,1.489508505,590,17,0.38
0.43814236050112093,1.470700131,590,17,0.38
0.4448315678564835,1.438660253,590,17,0.38
0.4498484343255925,1.42052453,590,17,0.38
0.45486533974342674,1.401193828,590,17,0.38
0.4615545472303728,1.377240687,590,17,0.38
0.4665714526482071,1.36138373,590,17,0.38
0.47158833872326233,1.3493928695,590,17,0.38
0.4766052247983175,1.333090448,590,17,0.38
0.4816221302161518,1.3233357125,590,17,0.38
0.48831133770309787,1.307338731,590,17,0.38
0.4933282431209321,1.295237194,590,17,0.38
0.49834510959004114,1.284537905,590,17,0.38
0.5050343170769872,1.274006073,590,17,0.38
0.5100512224948215,1.26323484,590,17,0.38
0.5150681281758228,1.256391485,590,17,0.38
0.521757296319293,1.2463713255000002,590,17,0.38
0.5267742018687108,1.238493615,590,17,0.38
0.5317911074181286,1.2311663130000001,590,17,0.38
0.5368080129675464,1.226031139,590,17,0.38
0.5418248990426016,1.219603153,590,17,0.38
0.5485140867920181,1.211262843,590,17,0.38
0.5535309923414359,1.205763292,590,17,0.38
0.5585478978908537,1.200225227,590,17,0.38
0.5652370857718536,1.1945217069999998,590,17,0.38
0.5702539717153252,1.189700259,590,17,0.38
0.575270877264743,1.1850229415,590,17,0.38
0.5819600846201055,1.179590291,590,17,0.38
0.5869769903011068,1.175689831,590,17,0.38
0.5919938565070489,1.1718175794999999,590,17,0.38
0.5970107621880502,1.168154037,590,17,0.38
0.6020276677374681,1.1647968304999998,590,17,0.38
0.6087168750928306,1.1612156054999998,590,17,0.38
0.6137337415619396,1.157952836,590,17,0.38
0.6187506469797739,1.155216798,590,17,0.38
0.6254398544667199,1.1515980505,590,17,0.38
0.6304567601477212,1.149458987,590,17,0.38
0.6354736459596094,1.147136595,590,17,0.38
0.6421628338406093,1.144114175,590,17,0.38
0.6471797392584435,1.14181821,590,17,0.38
0.6521966449394448,1.1399141725000002,590,17,0.38
0.657213511145387,1.138335117,590,17,0.38
0.6622304364323345,1.1362937515,590,17,0.38
0.6689196439192805,1.1340858045,590,17,0.38
0.6739365689430609,1.132192175,590,17,0.38
0.6789534158062237,1.1304574895,590,17,0.38
0.6856426231615862,1.1287327515,590,17,0.38
0.6906595483169502,1.126891568,590,17,0.38
0.6956764343920054,1.1252956809999999,590,17,0.38
0.7006933202038935,1.122970593,590,17,0.38
0.7057102062789486,1.122024327,590,17,0.38
0.7123994136343111,1.1190205605,590,17,0.38
0.7174162995777829,1.117451415,590,17,0.38
0.7224332248647304,1.1157480185,590,17,0.38
0.7291223930082007,1.113269168,590,17,0.38
0.7341392789516723,1.110328523,590,17,0.38
0.7391562041070361,1.108795644,590,17,0.38
0.7458454114623986,1.1041484714999998,590,17,0.38
0.7508622583255617,1.102164742,590,17,0.38
0.7558791834809256,1.0991966835,590,17,0.38
0.7608961086362894,1.095910763,590,17,0.38
0.7659129945797611,1.090620004,590,17,0.38
0.7726021627232316,1.0858762285,590,17,0.38
0.777619088010179,1.078066002,590,17,0.38
0.7826359739536506,1.0734325925000001,590,17,0.38
0.7893251813090131,1.0649041945,590,17,0.38
0.7943420673840683,1.057864078,590,17,0.38
0.7993589531959565,1.0463924690000002,590,17,0.38
0.8060481606829026,1.0352929285,590,17,0.38
0.8110650464947906,1.024010377,590,17,0.38
0.816081971781738,1.011772876,590,17,0.38
0.8210988186449011,1.000179146,590,17,0.38
0.8261157436686815,0.9863756108,590,17,0.38
0.8328049511556276,0.9726520056500001,590,17,0.38
0.8378218761794078,0.9587419799,590,17,0.38
0.8428387230425707,0.9430888358,590,17,0.38
0.8495279305295168,0.9253716781,590,17,0.38
0.8545448555532972,0.9144856693,590,17,0.38
0.8595617416283525,0.90012338425,590,17,0.38
0.8662509097718227,0.8741146317499999,590,17,0.38
0.8712678349271866,0.8607032796,590,17,0.38
0.8762847208706583,0.8544448364,590,17,0.38
0.8813016068141301,0.8382089074,590,17,0.38
0.8863185321010775,0.8224202143,590,17,0.38
0.8930077002445477,0.80335911475,590,17,0.38
0.8980245861880194,0.7904463613,590,17,0.38
0.9030415113433834,0.77365639395,590,17,0.38
0.9097307188303293,0.75719858515,590,17,0.38
0.9147475655619088,0.7325122065,590,17,0.38
0.9197644907172726,0.72192691465,590,17,0.38
0.9264536980726352,0.69593012,590,17,0.38
0.9314706233595828,0.6652591513,590,17,0.38
0.9364874699595787,0.634283928,590,17,0.38
0.941504395246526,0.6220489083,590,17,0.38
0.9465212811899976,0.580458344,590,17,0.38
0.9532104885453602,0.5201408696,590,17,0.38
0.9582273746204154,0.4767206684,590,17,0.38
0.9632442604323036,0.42275694055,590,17,0.38
0.9699334679192496,0.35529046475000003,590,17,0.38
0.9749503539943047,0.3028006284,590,17,0.38
0.979967279018085,0.2266571261,590,17,0.38
0.9866564472931388,0.1341741126,590,17,0.38
0.991673333105027,0.06018289343,590,17,0.38
0.9948211170977026,-0.024885827705000002,590,17,0.38
0.9962822660219877,0.004426779081,590,17,0.38
0.9972505615939048,0.020252925715,590,17,0.38
0.998207798491128,0.030310016655,590,17,0.38
0.9987351609403299,0.02582573257,590,17,0.38
0.9991242910743183,0.0120337915835,590,17,0.38
0.9995089896065669,-0.0044399666955,590,17,0.38
0.9997209463320175,-0.009547761566,590,17,0.38
0.9998773355955033,-0.007653546915,590,17,0.38
1.0,-0.002590276617,590,17,0.38
