Normalized Coil Height [-],Air Velocity [m/s],CFM,angle,height
7.317492683291181e-05,-0.022614121779,1360,17,0.38
0.0002586907876972546,-0.08657132849999999,1360,17,0.38
0.00044635311756899276,-0.1409941061,1360,17,0.38
0.0007006907780100751,-0.196722501,1360,17,0.38
0.0011623136373568887,-0.26308421795,1360,17,0.38
0.0016292775419653237,-0.3011572659,1360,17,0.38
0.0022621509691904715,-0.3249369781,1360,17,0.38
0.0034108164644145776,-0.34210108159999997,1360,17,0.38
0.00457277207311561,-0.3492717068,1360,17,0.38
0.007108085563759493,-0.3569630474,1360,17,0.38
0.01170609337515265,-0.370089843,1360,17,0.38
0.01672299036111424,-0.377632549,1360,17,0.38
0.0234121867503053,-0.38426933659999996,1360,17,0.38
0.028429082515171716,-0.3877113276,1360,17,0.38
0.03344598072222847,-0.38868660075,1360,17,0.38
0.040135178340409715,-0.3900963719,1360,17,0.38
0.045152076547466474,-0.3900663184,1360,17,0.38
0.0501689723202279,-0.3902606517,1360,17,0.38
0.05685816747779711,-0.3899204082,1360,17,0.38
0.06187506568485387,-0.3896223691,1360,17,0.38
0.06689196389191061,-0.3891836225,1360,17,0.38
0.07190886209896738,-0.3872781994,1360,17,0.38
0.07692575542427514,-0.38627900260000003,1360,17,0.38
0.08361495058184436,-0.38792890435,1360,17,0.38
0.08863185123635478,-0.3857993632,1360,17,0.38
0.09364874699595785,-0.3863563793,1360,17,0.38
0.10033793971923173,-0.3891432261,1360,17,0.38
0.10535484037374218,-0.3881819904,1360,17,0.38
0.11037173613334525,-0.39090950005,1360,17,0.38
0.1170609337515265,-0.39522146204999997,1360,17,0.38
0.12207782951112958,-0.3984227148,1360,17,0.38
0.12709472527073265,-0.4037312226,1360,17,0.38
0.13211162103033575,-0.4041913944,1360,17,0.38
0.13712852169800452,-0.40979686875,1360,17,0.38
0.14381771931618575,-0.41682870755,1360,17,0.38
0.14883461016772315,-0.4190239589,1360,17,0.38
0.15385151083539192,-0.42422845015,1360,17,0.38
0.16054070845357316,-0.43285484794999995,1360,17,0.38
0.16555760912124193,-0.4407072905,1360,17,0.38
0.17057449506471362,-0.44277927019999996,1360,17,0.38
0.17726370248586792,-0.45112389799999997,1360,17,0.38
0.18228058844249792,-0.4533012937,1360,17,0.38
0.18729749400507406,-0.45502163775000004,1360,17,0.38
0.19231437996170406,-0.4556919751,1360,17,0.38
0.19733128553743856,-0.45628107245,1360,17,0.38
0.20402048314246143,-0.45186278025,1360,17,0.38
0.2090373789152229,-0.4431375612,1360,17,0.38
0.21405427466166763,-0.43354887675,1360,17,0.38
0.22074347227984886,-0.41001126600000004,1360,17,0.38
0.225760377842425,-0.3848939769,1360,17,0.38
0.230777263799055,-0.34868464835,1360,17,0.38
0.23746646141723626,-0.29913560325,1360,17,0.38
0.242483357163681,-0.2382758314,1360,17,0.38
0.24750026273941547,-0.16627297600000002,1360,17,0.38
0.25251714870920383,-0.07382392424,1360,17,0.38
0.25753405425862164,0.029590068284999996,1360,17,0.38
0.26422324203435477,0.17798616255,1360,17,0.38
0.26924014771535604,0.3396005235,1360,17,0.38
0.27425704339600904,0.52898258435,1360,17,0.38
0.2809462410141903,0.7887105212500001,1360,17,0.38
0.2859631270892455,1.006208972,1360,17,0.38
0.2909800325070797,1.236003124,1360,17,0.38
0.2976692302568445,1.554651698,1360,17,0.38
0.30268612593749744,1.860586643,1360,17,0.38
0.30770302161815044,2.1393810054999998,1360,17,0.38
0.3127199172988034,2.372095004,1360,17,0.38
0.3177368229798047,2.7167947244999997,1360,17,0.38
0.3244260107292211,3.09651576,1360,17,0.38
0.329442935884585,3.431658434,1360,17,0.38
0.33445980235369405,3.7359342260000004,1360,17,0.38
0.34114900970905665,4.1890073335,1360,17,0.38
0.3461659152584744,4.432870935,1360,17,0.38
0.3511828209394757,4.7085203495000005,1360,17,0.38
0.3561996871454178,5.012781088,1360,17,0.38
0.3612165928264191,5.2732017105,1360,17,0.38
0.3679058001817816,5.560626206,1360,17,0.38
0.3729227057311994,5.614724152,1360,17,0.38
0.3779395918062546,5.736928147,1360,17,0.38
0.384628779555671,5.7563616490000005,1360,17,0.38
0.3896456851050888,5.691804471,1360,17,0.38
0.39466259065450654,5.598975578499999,1360,17,0.38
0.40135177840392294,5.4133712885000005,1360,17,0.38
0.4063686644789781,5.2536836,1360,17,0.38
0.41138557002839593,5.1066987305,1360,17,0.38
0.4164024755778137,4.967594374,1360,17,0.38
0.4214193811272315,4.810601662,1360,17,0.38
0.42810854927070185,4.6351575369999996,1360,17,0.38
0.4331254549517031,4.506713104,1360,17,0.38
0.43814236050112093,4.414696383,1360,17,0.38
0.4448315678564835,4.257082914,1360,17,0.38
0.4498484343255925,4.17934364,1360,17,0.38
0.45486533974342674,4.0955348025,1360,17,0.38
0.4615545472303728,3.9891998605,1360,17,0.38
0.4665714526482071,3.91482412,1360,17,0.38
0.47158833872326233,3.863272029,1360,17,0.38
0.4766052247983175,3.790695965,1360,17,0.38
0.4816221302161518,3.7491291230000003,1360,17,0.38
0.48831133770309787,3.6780223144999997,1360,17,0.38
0.4933282431209321,3.623510045,1360,17,0.38
0.49834510959004114,3.5738050064999998,1360,17,0.38
0.5050343170769872,3.525578745,1360,17,0.38
0.5100512224948215,3.477852508,1360,17,0.38
0.5150681281758228,3.4450700965000003,1360,17,0.38
0.521757296319293,3.402188389,1360,17,0.38
0.5267742018687108,3.367589515,1360,17,0.38
0.5317911074181286,3.3349738795,1360,17,0.38
0.5368080129675464,3.312184193,1360,17,0.38
0.5418248990426016,3.2857051354999998,1360,17,0.38
0.5485140867920181,3.249780998,1360,17,0.38
0.5535309923414359,3.226143066,1360,17,0.38
0.5585478978908537,3.201289253,1360,17,0.38
0.5652370857718536,3.1762099900000003,1360,17,0.38
0.5702539717153252,3.156279037,1360,17,0.38
0.575270877264743,3.136066248,1360,17,0.38
0.5819600846201055,3.1125534239999997,1360,17,0.38
0.5869769903011068,3.094786374,1360,17,0.38
0.5919938565070489,3.079607851,1360,17,0.38
0.5970107621880502,3.064360255,1360,17,0.38
0.6020276677374681,3.05009262,1360,17,0.38
0.6087168750928306,3.0345279945,1360,17,0.38
0.6137337415619396,3.021787547,1360,17,0.38
0.6187506469797739,3.010506165,1360,17,0.38
0.6254398544667199,2.9946660764999997,1360,17,0.38
0.6304567601477212,2.98580467,1360,17,0.38
0.6354736459596094,2.9743815280000003,1360,17,0.38
0.6421628338406093,2.9627087464999997,1360,17,0.38
0.6471797392584435,2.953167807,1360,17,0.38
0.6521966449394448,2.9445676450000002,1360,17,0.38
0.657213511145387,2.936839171,1360,17,0.38
0.6622304364323345,2.930574085,1360,17,0.38
0.6689196439192805,2.92023805,1360,17,0.38
0.6739365689430609,2.914334404,1360,17,0.38
0.6789534158062237,2.9075512305,1360,17,0.38
0.6856426231615862,2.900620364,1360,17,0.38
0.6906595483169502,2.893913498,1360,17,0.38
0.6956764343920054,2.889388604,1360,17,0.38
0.7006933202038935,2.881910799,1360,17,0.38
0.7057102062789486,2.878806853,1360,17,0.38
0.7123994136343111,2.8706215635000003,1360,17,0.38
0.7174162995777829,2.867186667,1360,17,0.38
0.7224332248647304,2.8625236605,1360,17,0.38
0.7291223930082007,2.8585480315,1360,17,0.38
0.7341392789516723,2.852686383,1360,17,0.38
0.7391562041070361,2.850041504,1360,17,0.38
0.7458454114623986,2.8422266985,1360,17,0.38
0.7508622583255617,2.839445229,1360,17,0.38
0.7558791834809256,2.837064658,1360,17,0.38
0.7608961086362894,2.833300807,1360,17,0.38
0.7659129945797611,2.8266659155,1360,17,0.38
0.7726021627232316,2.8218568155,1360,17,0.38
0.777619088010179,2.813820366,1360,17,0.38
0.7826359739536506,2.8098059655,1360,17,0.38
0.7893251813090131,2.8013023495000002,1360,17,0.38
0.7943420673840683,2.795234463,1360,17,0.38
0.7993589531959565,2.783017811,1360,17,0.38
0.8060481606829026,2.7706860425,1360,17,0.38
0.8110650464947906,2.75626727,1360,17,0.38
0.816081971781738,2.738197482,1360,17,0.38
0.8210988186449011,2.723070332,1360,17,0.38
0.8261157436686815,2.698758775,1360,17,0.38
0.8328049511556276,2.668040243,1360,17,0.38
0.8378218761794078,2.635356248,1360,17,0.38
0.8428387230425707,2.59315951,1360,17,0.38
0.8495279305295168,2.539959949,1360,17,0.38
0.8545448555532972,2.500038569,1360,17,0.38
0.8595617416283525,2.4494371635,1360,17,0.38
0.8662509097718227,2.353354231,1360,17,0.38
0.8712678349271866,2.297397069,1360,17,0.38
0.8762847208706583,2.263625719,1360,17,0.38
0.8813016068141301,2.196096602,1360,17,0.38
0.8863185321010775,2.127763669,1360,17,0.38
0.8930077002445477,2.043377988,1360,17,0.38
0.8980245861880194,1.989586799,1360,17,0.38
0.9030415113433834,1.917421666,1360,17,0.38
0.9097307188303293,1.849145169,1360,17,0.38
0.9147475655619088,1.754199275,1360,17,0.38
0.9197644907172726,1.7132145735,1360,17,0.38
0.9264536980726352,1.6267643045,1360,17,0.38
0.9314706233595828,1.528480421,1360,17,0.38
0.9364874699595787,1.4395392865,1360,17,0.38
0.941504395246526,1.411031812,1360,17,0.38
0.9465212811899976,1.3129993875000001,1360,17,0.38
0.9532104885453602,1.1701693905,1360,17,0.38
0.9582273746204154,1.06743575,1360,17,0.38
0.9632442604323036,0.94218358645,1360,17,0.38
0.9699334679192496,0.77639262645,1360,17,0.38
0.9749503539943047,0.6799071184,1360,17,0.38
0.979967279018085,0.52929767685,1360,17,0.38
0.9866564472931388,0.32024444654999995,1360,17,0.38
0.991673333105027,0.1248778861,1360,17,0.38
0.9948211170977026,-0.082841155175,1360,17,0.38
0.9962822660219877,-0.05578800957,1360,17,0.38
0.9972505615939048,-0.051085927579999996,1360,17,0.38
0.998207798491128,-0.025915686610000002,1360,17,0.38
0.9987351609403299,-0.01241093863,1360,17,0.38
0.9991242910743183,-0.02219300075,1360,17,0.38
0.9995089896065669,-0.035696013624999995,1360,17,0.38
0.9997209463320175,-0.03205909772,1360,17,0.38
0.9998773355955033,-0.01904072898,1360,17,0.38
1.0,-0.004733205942,1360,17,0.38
