Normalized Coil Height [-],Air Velocity [m/s],CFM,angle,height
7.317492683291181e-05,-0.0182318928195,1150,17,0.38
0.0002586907876972546,-0.06980631045999999,1150,17,0.38
0.00044635311756899276,-0.1137765939,1150,17,0.38
0.0007006907780100751,-0.158940102,1150,17,0.38
0.0011623136373568887,-0.2128543147,1150,17,0.38
0.0016292775419653237,-0.2438939523,1150,17,0.38
0.0022621509691904715,-0.26343777065,1150,17,0.38
0.0034108164644145776,-0.27748895100000004,1150,17,0.38
0.00457277207311561,-0.28335568,1150,17,0.38
0.007108085563759493,-0.28963403995000003,1150,17,0.38
0.01170609337515265,-0.3002905426,1150,17,0.38
0.01672299036111424,-0.30668844674999995,1150,17,0.38
0.0234121867503053,-0.3128740002,1150,17,0.38
0.028429082515171716,-0.31637099,1150,17,0.38
0.03344598072222847,-0.31785513565,1150,17,0.38
0.040135178340409715,-0.3201111769,1150,17,0.38
0.045152076547466474,-0.3208278239,1150,17,0.38
0.0501689723202279,-0.32193019075,1150,17,0.38
0.05685816747779711,-0.32284542115000003,1150,17,0.38
0.06187506568485387,-0.3234118959,1150,17,0.38
0.06689196389191061,-0.32406204755,1150,17,0.38
0.07190886209896738,-0.323110933,1150,17,0.38
0.07692575542427514,-0.3232822566,1150,17,0.38
0.08361495058184436,-0.32637133825,1150,17,0.38
0.08863185123635478,-0.3253140747,1150,17,0.38
0.09364874699595785,-0.32699590425,1150,17,0.38
0.10033793971923173,-0.33106413695,1150,17,0.38
0.10535484037374218,-0.3309863898,1150,17,0.38
0.11037173613334525,-0.3347559722,1150,17,0.38
0.1170609337515265,-0.34026294105,1150,17,0.38
0.12207782951112958,-0.3436424234,1150,17,0.38
0.12709472527073265,-0.34862114225,1150,17,0.38
0.13211162103033575,-0.3500410617,1150,17,0.38
0.13712852169800452,-0.356070895,1150,17,0.38
0.14381771931618575,-0.36312058625,1150,17,0.38
0.14883461016772315,-0.3649168935,1150,17,0.38
0.15385151083539192,-0.3694875018,1150,17,0.38
0.16054070845357316,-0.37711847705,1150,17,0.38
0.16555760912124193,-0.3841033785,1150,17,0.38
0.17057449506471362,-0.3847443558,1150,17,0.38
0.17726370248586792,-0.39048809175,1150,17,0.38
0.18228058844249792,-0.3904439211,1150,17,0.38
0.18729749400507406,-0.38948939225,1150,17,0.38
0.19231437996170406,-0.3868575963,1150,17,0.38
0.19733128553743856,-0.38353462034999997,1150,17,0.38
0.20402048314246143,-0.37421213135,1150,17,0.38
0.2090373789152229,-0.3593655211,1150,17,0.38
0.21405427466166763,-0.3453541812,1150,17,0.38
0.22074347227984886,-0.313734135,1150,17,0.38
0.225760377842425,-0.2816028766,1150,17,0.38
0.230777263799055,-0.23689488669999997,1150,17,0.38
0.23746646141723626,-0.1781524665,1150,17,0.38
0.242483357163681,-0.1074029378,1150,17,0.38
0.24750026273941547,-0.0258723282635,1150,17,0.38
0.25251714870920383,0.07586861487,1150,17,0.38
0.25753405425862164,0.1887427364,1150,17,0.38
0.26422324203435477,0.34491506130000005,1150,17,0.38
0.26924014771535604,0.5117044768,1150,17,0.38
0.27425704339600904,0.7030535739499999,1150,17,0.38
0.2809462410141903,0.9604649056500001,1150,17,0.38
0.2859631270892455,1.171695057,1150,17,0.38
0.2909800325070797,1.3927711455,1150,17,0.38
0.2976692302568445,1.6962922225,1150,17,0.38
0.30268612593749744,1.98432755,1150,17,0.38
0.30770302161815044,2.241993269,1150,17,0.38
0.3127199172988034,2.454095222,1150,17,0.38
0.3177368229798047,2.765432264,1150,17,0.38
0.3244260107292211,3.1036577349999996,1150,17,0.38
0.329442935884585,3.399744931,1150,17,0.38
0.33445980235369405,3.6566464155,1150,17,0.38
0.34114900970905665,4.0261735785,1150,17,0.38
0.3461659152584744,4.214953398,1150,17,0.38
0.3511828209394757,4.408145376,1150,17,0.38
0.3561996871454178,4.61386592,1150,17,0.38
0.3612165928264191,4.749111721,1150,17,0.38
0.3679058001817816,4.8579645625,1150,17,0.38
0.3729227057311994,4.83025327,1150,17,0.38
0.3779395918062546,4.8081915980000005,1150,17,0.38
0.384628779555671,4.7257614605,1150,17,0.38
0.3896456851050888,4.618561103,1150,17,0.38
0.39466259065450654,4.5038164185,1150,17,0.38
0.40135177840392294,4.3318034155,1150,17,0.38
0.4063686644789781,4.194722079,1150,17,0.38
0.41138557002839593,4.0766418605,1150,17,0.38
0.4164024755778137,3.966547916,1150,17,0.38
0.4214193811272315,3.8470820835,1150,17,0.38
0.42810854927070185,3.7139332649999997,1150,17,0.38
0.4331254549517031,3.618331393,1150,17,0.38
0.43814236050112093,3.550208882,1150,17,0.38
0.4448315678564835,3.4342425265,1150,17,0.38
0.4498484343255925,3.373475678,1150,17,0.38
0.45486533974342674,3.3102777805,1150,17,0.38
0.4615545472303728,3.229872718,1150,17,0.38
0.4665714526482071,3.174192455,1150,17,0.38
0.47158833872326233,3.135009937,1150,17,0.38
0.4766052247983175,3.080169491,1150,17,0.38
0.4816221302161518,3.0484509025,1150,17,0.38
0.48831133770309787,2.994787314,1150,17,0.38
0.4933282431209321,2.953766683,1150,17,0.38
0.49834510959004114,2.9165318559999998,1150,17,0.38
0.5050343170769872,2.880246617,1150,17,0.38
0.5100512224948215,2.843969943,1150,17,0.38
0.5150681281758228,2.819584656,1150,17,0.38
0.521757296319293,2.7870794045,1150,17,0.38
0.5267742018687108,2.760796426,1150,17,0.38
0.5317911074181286,2.736077592,1150,17,0.38
0.5368080129675464,2.71881402,1150,17,0.38
0.5418248990426016,2.6984205775000003,1150,17,0.38
0.5485140867920181,2.6710840315,1150,17,0.38
0.5535309923414359,2.653170861,1150,17,0.38
0.5585478978908537,2.634459235,1150,17,0.38
0.5652370857718536,2.6155376859999997,1150,17,0.38
0.5702539717153252,2.600346064,1150,17,0.38
0.575270877264743,2.585038613,1150,17,0.38
0.5819600846201055,2.5672093785000003,1150,17,0.38
0.5869769903011068,2.553792531,1150,17,0.38
0.5919938565070489,2.54213677,1150,17,0.38
0.5970107621880502,2.530572781,1150,17,0.38
0.6020276677374681,2.51969056,1150,17,0.38
0.6087168750928306,2.5078698045,1150,17,0.38
0.6137337415619396,2.498171272,1150,17,0.38
0.6187506469797739,2.489491847,1150,17,0.38
0.6254398544667199,2.477399881,1150,17,0.38
0.6304567601477212,2.470526813,1150,17,0.38
0.6354736459596094,2.4616608725,1150,17,0.38
0.6421628338406093,2.452675751,1150,17,0.38
0.6471797392584435,2.445210091,1150,17,0.38
0.6521966449394448,2.438552565,1150,17,0.38
0.657213511145387,2.432521596,1150,17,0.38
0.6622304364323345,2.427525,1150,17,0.38
0.6689196439192805,2.4197083399999997,1150,17,0.38
0.6739365689430609,2.414875407,1150,17,0.38
0.6789534158062237,2.4096675825,1150,17,0.38
0.6856426231615862,2.4044981754999997,1150,17,0.38
0.6906595483169502,2.399507525,1150,17,0.38
0.6956764343920054,2.3958421695,1150,17,0.38
0.7006933202038935,2.390128427,1150,17,0.38
0.7057102062789486,2.387819036,1150,17,0.38
0.7123994136343111,2.3815052735,1150,17,0.38
0.7174162995777829,2.378658818,1150,17,0.38
0.7224332248647304,2.3751643835,1150,17,0.38
0.7291223930082007,2.3717361875,1150,17,0.38
0.7341392789516723,2.366947412,1150,17,0.38
0.7391562041070361,2.3646641515,1150,17,0.38
0.7458454114623986,2.358080747,1150,17,0.38
0.7508622583255617,2.355639997,1150,17,0.38
0.7558791834809256,2.3530108729999997,1150,17,0.38
0.7608961086362894,2.349512945,1150,17,0.38
0.7659129945797611,2.3433000525,1150,17,0.38
0.7726021627232316,2.338660299,1150,17,0.38
0.777619088010179,2.330413711,1150,17,0.38
0.7826359739536506,2.3266426840000003,1150,17,0.38
0.7893251813090131,2.318121053,1150,17,0.38
0.7943420673840683,2.311494959,1150,17,0.38
0.7993589531959565,2.2989856,1150,17,0.38
0.8060481606829026,2.2858301085,1150,17,0.38
0.8110650464947906,2.270742383,1150,17,0.38
0.816081971781738,2.252743105,1150,17,0.38
0.8210988186449011,2.236785659,1150,17,0.38
0.8261157436686815,2.21279238,1150,17,0.38
0.8328049511556276,2.1842479255,1150,17,0.38
0.8378218761794078,2.154566204,1150,17,0.38
0.8428387230425707,2.1173791015,1150,17,0.38
0.8495279305295168,2.071721922,1150,17,0.38
0.8545448555532972,2.038967748,1150,17,0.38
0.8595617416283525,1.997605556,1150,17,0.38
0.8662509097718227,1.9211471105,1150,17,0.38
0.8712678349271866,1.877663227,1150,17,0.38
0.8762847208706583,1.8522620365,1150,17,0.38
0.8813016068141301,1.799966205,1150,17,0.38
0.8863185321010775,1.747795,1150,17,0.38
0.8930077002445477,1.683829544,1150,17,0.38
0.8980245861880194,1.642876347,1150,17,0.38
0.9030415113433834,1.5882066204999998,1150,17,0.38
0.9097307188303293,1.5366588045,1150,17,0.38
0.9147475655619088,1.464098663,1150,17,0.38
0.9197644907172726,1.4334706695000001,1150,17,0.38
0.9264536980726352,1.3669009095,1150,17,0.38
0.9314706233595828,1.290495626,1150,17,0.38
0.9364874699595787,1.2209488400000001,1150,17,0.38
0.941504395246526,1.198295587,1150,17,0.38
0.9465212811899976,1.1180886625,1150,17,0.38
0.9532104885453602,0.99945000455,1150,17,0.38
0.9582273746204154,0.9140017452,1150,17,0.38
0.9632442604323036,0.80995363865,1150,17,0.38
0.9699334679192496,0.6731171254,1150,17,0.38
0.9749503539943047,0.5872700314,1150,17,0.38
0.979967279018085,0.4541142291,1150,17,0.38
0.9866564472931388,0.27358268445,1150,17,0.38
0.991673333105027,0.1070673179,1150,17,0.38
0.9948211170977026,-0.06973946185999999,1150,17,0.38
0.9962822660219877,-0.04114592839,1150,17,0.38
0.9972505615939048,-0.03197130988,1150,17,0.38
0.998207798491128,-0.010663508321,1150,17,0.38
0.9987351609403299,-0.004061477393,1150,17,0.38
0.9991242910743183,-0.015453233184999998,1150,17,0.38
0.9995089896065669,-0.02869000949,1150,17,0.38
0.9997209463320175,-0.02676558945,1150,17,0.38
0.9998773355955033,-0.016413702885,1150,17,0.38
1.0,-0.004303131823,1150,17,0.38
